‘ª’èŽžŠÔ	T1Raw	T2Raw	T3Raw	T4Raw	
         0	-0.01273148	0.02334588	0.00885051	-0.00339002	
         0	-0.00081307	0.01046111	0.00691779	0.00047541	
         1	0.00176389	0.00208601	0.00240812	0.00691779	
         2	0.00240812	-0.00628909	0.00305236	0.00595144	
         3	0.00176389	-0.00596698	-0.00339002	0.00240812	
         4	0.00466296	-0.01273148	-0.00306790	0.00176389	
         5	0.00562932	-0.02175082	-0.00628909	-0.00016883	
         6	0.00273024	-0.02271718	-0.00661121	0.00047541	
         7	0.00047541	-0.02078446	-0.00628909	0.00079753	
         8	0.00111965	-0.02400565	-0.00951029	-0.00403426	
         9	0.00176389	-0.00983241	-0.00596698	0.00208601	
        10	0.00240812	0.01078323	-0.00628909	-0.00145731	
        11	-0.00242366	0.02656707	-0.00886605	-0.00306790	
        13	-0.00564486	0.03268733	-0.00242366	0.00047541	
        14	0.00144177	0.01271594	0.00208601	-0.00306790	
        15	0.00562932	-0.00177943	0.00401872	-0.00371214	
        16	0.00723991	0.00079753	0.00788415	-0.00274578	
        16	0.00820627	0.00015329	0.00627356	-0.00467850	
        17	0.01271594	0.00369660	0.01013899	-0.00081307	
        19	0.01819197	0.00981687	0.01400442	0.00562932	
        20	0.01915833	0.00273024	0.01271594	0.00820627	
        21	0.01142746	-0.00983241	0.00434084	0.00562932	
        21	0.01142746	-0.01176512	0.00434084	0.00369660	
        23	0.00401872	0.00434084	0.00176389	0.00111965	
        24	0.00466296	-0.00596698	0.00240812	0.00079753	
        25	-0.02207294	-0.00500062	-0.00403426	0.00047541	
        26	-0.02980380	-0.00564486	-0.00725545	0.00111965	
        27	-0.00339002	-0.00274578	-0.00886605	0.00015329	
        28	-0.02561625	-0.01498631	-0.00951029	-0.00274578	
        29	-0.02626049	-0.01917386	-0.01401996	-0.00500062	
        30	-0.01401996	-0.02110658	-0.01401996	-0.00886605	
        31	-0.00177943	-0.00822181	-0.01240936	-0.00306790	
        32	0.00498508	-0.00371214	-0.00789969	0.00401872	
        33	0.00852839	-0.00951029	-0.00564486	0.00176389	
        34	0.00949475	0.00047541	0.00144177	0.00240812	
        35	0.00788415	0.04009608	0.00498508	-0.00113519	
        36	0.01303806	0.04428363	0.00562932	-0.00532274	
        37	0.00530720	0.00530720	0.00595144	-0.00177943	
        38	0.00917263	0.00401872	0.00917263	-0.00145731	
        39	0.00369660	0.00530720	0.01142746	-0.00177943	
        40	-0.01273148	0.00756203	0.00852839	-0.00403426	
        41	-0.00500062	-0.01466419	0.00659567	-0.00467850	
        42	-0.02046234	-0.01788539	0.00498508	-0.00210154	
        43	-0.01885174	0.00756203	0.00208601	0.00240812	
        44	-0.01240936	0.00917263	-0.00049095	0.00079753	
        45	-0.00403426	-0.01015453	-0.00177943	0.00176389	
        46	-0.00467850	-0.00918817	-0.00725545	0.00111965	
        47	-0.00596698	0.00401872	-0.00854393	0.00401872	
        48	-0.01015453	0.01497078	-0.01208724	0.00176389	
        49	-0.01176512	0.01110534	-0.01176512	0.00208601	
        50	0.00885051	0.00530720	-0.00725545	0.00498508	
        51	0.01013899	-0.00564486	-0.00532274	0.00401872	
        52	0.00659567	-0.01176512	-0.00532274	0.00627356	
        53	0.00852839	-0.01240936	-0.00145731	-0.00016883	
        54	0.00788415	-0.01144300	0.00273024	-0.00210154	
        55	0.01142746	-0.01820751	0.00305236	-0.00564486	
        56	0.00756203	-0.01208724	0.00659567	-0.00339002	
        57	0.00562932	0.00562932	0.01013899	-0.00049095	
        58	0.00852839	0.02302376	0.01174958	-0.00306790	
        59	0.00627356	0.01174958	0.01142746	-0.00274578	
        60	0.00595144	-0.00049095	0.01142746	-0.00564486	
        61	-0.00049095	-0.02046234	0.00498508	-0.00822181	
        62	-0.00435638	-0.03560194	-0.00049095	-0.00725545	
        63	-0.01498631	-0.01981810	-0.00371214	0.00885051	
        64	-0.03173651	-0.00951029	-0.00725545	0.01336018	
        65	-0.02432777	-0.00564486	-0.00854393	0.01593713	
        66	-0.02593837	-0.00628909	-0.00886605	0.01529289	
        67	0.02302376	-0.00500062	-0.00757757	0.00337448	
        68	0.01593713	-0.00435638	-0.01273148	0.00015329	
        69	0.00627356	-0.00177943	-0.01401996	-0.00306790	
        70	-0.00435638	-0.00113519	-0.01434208	-0.00693333	
        71	0.00079753	0.00434084	-0.00725545	-0.00274578	
        72	-0.00145731	-0.00661121	-0.00500062	-0.00371214	
        73	0.00369660	-0.00854393	-0.00016883	-0.00113519	
        74	0.01142746	-0.01724115	0.00337448	-0.00274578	
        75	0.01529289	-0.01144300	0.00240812	-0.00145731	
        76	0.00820627	-0.01079876	0.00917263	-0.00467850	
        77	-0.00403426	0.00723991	0.00885051	-0.00500062	
        78	-0.00596698	0.02656707	0.00917263	-0.00500062	
        79	-0.01563055	0.02270164	0.01142746	-0.00435638	
        80	-0.02271718	0.02109104	0.00852839	-0.00306790	
        81	-0.00854393	0.03623065	0.00756203	-0.00274578	
        82	0.00917263	0.03011038	0.00530720	-0.00822181	
        83	0.00981687	0.00273024	0.00305236	-0.00661121	
        84	0.01464866	-0.00983241	-0.00435638	-0.00467850	
        85	0.00627356	-0.01885174	-0.00628909	0.00015329	
        86	0.00466296	-0.03109228	-0.00983241	0.01400442	
        87	0.00369660	-0.02432777	-0.00983241	0.01110534	
        88	0.00627356	-0.01144300	-0.01208724	0.00788415	
        89	-0.00500062	-0.00049095	-0.01691903	-0.00113519	
        90	-0.01401996	0.01271594	-0.00661121	0.00079753	
        91	-0.00918817	0.00659567	-0.01079876	-0.00016883	
        92	-0.00467850	-0.00242366	-0.00822181	0.00208601	
        93	-0.00661121	-0.00435638	-0.00016883	0.00015329	
        94	-0.00983241	-0.00435638	0.00305236	0.00240812	
        95	0.00111965	-0.00693333	0.00723991	0.00337448	
        96	0.01110534	0.01464866	0.00917263	0.00337448	
        97	0.01561501	0.04686058	0.00981687	-0.00177943	
        98	0.01851409	0.02495647	0.01271594	-0.00306790	
        99	0.01239382	0.00659567	0.01078323	0.00079753	
       100	0.00305236	0.00337448	0.01013899	0.00208601	
       101	-0.00467850	0.00079753	0.00627356	0.00627356	
       102	-0.00822181	-0.01240936	0.00079753	0.00498508	
       103	-0.00628909	-0.01595267	-0.00242366	-0.00145731	
       104	-0.01369784	-0.01369784	-0.00564486	-0.03399135	
       105	-0.00274578	-0.00983241	-0.00628909	-0.00016883	
       106	-0.00467850	-0.00371214	-0.00951029	-0.00757757	
       107	-0.01981810	0.00498508	-0.01208724	-0.00467850	
       108	-0.00789969	0.03075462	-0.01047664	-0.00177943	
       109	-0.00983241	0.02785555	-0.01337572	-0.00210154	
       110	-0.01305360	0.01464866	-0.01273148	-0.00339002	
       111	-0.00274578	0.00305236	-0.01176512	-0.00242366	
       112	-0.00822181	-0.00113519	-0.00725545	0.00047541	
       113	-0.00081307	-0.00306790	-0.00274578	0.00047541	
       114	0.01142746	-0.00435638	-0.00081307	0.00401872	
       115	0.01142746	-0.00854393	-0.00081307	0.01142746	
       116	0.00852839	-0.02754896	0.00691779	0.00852839	
       117	0.02882190	-0.02432777	0.01303806	-0.00145731	
       118	0.02431223	-0.00693333	0.00885051	0.00240812	
       119	0.01819197	0.00852839	0.01497078	0.00111965	
       120	0.01303806	-0.01337572	0.00788415	-0.00822181	
       121	0.00885051	-0.00951029	0.00756203	-0.01079876	
       122	-0.01176512	0.00337448	0.00659567	-0.00951029	
       123	-0.00242366	0.00047541	0.00562932	-0.00274578	
       124	0.00208601	0.02076892	0.00240812	0.00015329	
       125	0.00595144	0.01593713	-0.00661121	-0.00081307	
       126	-0.00725545	0.00691779	-0.00789969	0.00176389	
       127	-0.02464989	0.00820627	-0.01079876	0.00176389	
       128	-0.02658261	0.00337448	-0.01176512	0.00079753	
       129	-0.01917386	-0.00596698	-0.01112088	-0.00081307	
       130	-0.00693333	-0.02110658	-0.01015453	-0.00661121	
       131	0.00015329	-0.02819320	-0.00886605	-0.00886605	
       132	0.00369660	-0.02658261	-0.00854393	-0.00564486	
       133	-0.00016883	-0.02432777	-0.00210154	0.00144177	
       134	-0.00500062	-0.04172221	0.00079753	0.00659567	
       135	0.00466296	-0.02948168	0.00208601	0.00562932	
       136	-0.01273148	-0.01659691	0.00659567	0.00627356	
       137	-0.01627479	-0.03270287	0.00885051	-0.00081307	
       138	0.00949475	0.02946614	0.01400442	0.00047541	
       139	0.00917263	0.04267303	0.01142746	-0.00049095	
       140	-0.00145731	0.05716840	0.01207170	-0.00467850	
       141	-0.00532274	0.08615913	0.00820627	-0.00789969	
       142	-0.00822181	0.04331727	0.00820627	-0.00274578	
       143	-0.01949598	0.01464866	-0.00016883	0.00015329	
       144	-0.02336141	0.01625925	-0.00113519	0.00015329	
       145	-0.02271718	0.00273024	-0.00242366	0.00369660	
       146	-0.00693333	0.00305236	-0.00532274	0.00627356	
       147	0.00562932	0.00530720	-0.00725545	0.00788415	
       148	0.00273024	0.00273024	-0.01369784	0.00337448	
       149	0.00079753	0.00369660	-0.01112088	-0.00113519	
       150	0.00176389	0.01207170	-0.01144300	-0.00177943	
       150	0.01110534	0.02399011	-0.00822181	-0.00210154	
       151	0.01497078	0.01561501	-0.00725545	0.00337448	
       152	0.00852839	0.00852839	-0.00210154	0.00659567	
       153	0.00466296	-0.02175082	0.00144177	0.00401872	
       154	0.00176389	-0.03978949	-0.00081307	-0.00016883	
       155	0.01915833	-0.03334711	0.00498508	-0.00628909	
       156	0.03204310	-0.05557334	0.00691779	-0.00564486	
       157	0.02205740	-0.04558764	0.01142746	-0.00467850	
       158	0.01497078	-0.02368353	0.00852839	-0.00210154	
       159	0.01078323	-0.02078446	0.00466296	-0.00403426	
       160	0.00337448	-0.01691903	0.00466296	-0.00467850	
       161	-0.01047664	-0.00918817	0.00530720	-0.00467850	
       162	-0.01981810	-0.00532274	0.00240812	-0.00145731	
       163	-0.01112088	-0.00789969	-0.00177943	0.00047541	
       164	-0.00210154	-0.00371214	-0.00693333	0.00723991	
       165	0.01239382	0.00111965	-0.00500062	0.01013899	
       166	0.00562932	0.00079753	-0.00532274	0.00981687	
       167	0.00015329	-0.00661121	-0.00951029	0.00562932	
       168	-0.00983241	-0.00628909	-0.01466419	0.00111965	
       169	-0.01273148	-0.00757757	-0.00918817	0.00144177	
       170	-0.00661121	-0.00564486	-0.00918817	-0.00339002	
       171	-0.00757757	-0.00951029	-0.00532274	-0.00854393	
       172	-0.00339002	-0.00435638	-0.00145731	-0.01047664	
       173	-0.01015453	0.00530720	0.00305236	-0.00274578	
       174	-0.00693333	0.00659567	-0.00016883	0.00240812	
       175	0.00015329	0.00434084	0.00466296	-0.00532274	
       176	0.00047541	-0.00339002	0.01078323	-0.00435638	
       177	-0.01659691	-0.00016883	0.01013899	0.00015329	
       178	-0.00242366	-0.00145731	0.00949475	0.00015329	
       179	0.00723991	0.01561501	0.00852839	0.00047541	
       180	0.00015329	0.00691779	0.00434084	0.00337448	
       181	0.00530720	0.00144177	0.00401872	0.00659567	
       182	0.02173528	-0.00661121	0.00015329	0.00530720	
       183	0.01722561	-0.00435638	-0.00500062	0.00240812	
       184	0.00885051	0.02495647	-0.00661121	-0.00177943	
       185	0.00337448	0.03043250	-0.00822181	-0.00274578	
       186	-0.02336141	0.01303806	-0.00983241	-0.00274578	
       187	-0.02142870	0.01078323	-0.01434208	-0.00339002	
       188	-0.01144300	0.00917263	-0.01208724	-0.00242366	
       189	0.01336018	0.00852839	-0.00886605	-0.00274578	
       190	-0.01273148	0.00144177	-0.00789969	-0.00177943	
       191	-0.01208724	0.00273024	-0.00403426	0.00047541	
       192	0.00337448	-0.00500062	-0.00242366	0.00079753	
       193	-0.00145731	-0.00049095	0.00273024	-0.00435638	
       194	0.00434084	-0.00049095	0.00917263	0.00144177	
       195	0.00305236	0.00015329	0.00788415	-0.00081307	
       196	-0.00113519	-0.00306790	0.00981687	-0.00049095	
       197	-0.00757757	0.00111965	0.01207170	0.00434084	
       198	-0.00757757	-0.00177943	0.01046111	0.00144177	
       199	-0.00145731	-0.00145731	0.00466296	-0.00339002	
       200	-0.01015453	0.00305236	0.00562932	-0.00210154	
       201	-0.01434208	-0.00113519	-0.00049095	-0.00210154	
       202	0.00659567	-0.00596698	-0.00113519	-0.00661121	
       203	0.01174958	-0.01176512	-0.00403426	-0.00081307	
       204	0.00176389	-0.00822181	0.00047541	-0.00306790	
       205	0.00917263	-0.00918817	-0.00854393	-0.00693333	
       206	0.01303806	-0.00403426	-0.01208724	-0.01047664	
       207	-0.00500062	-0.00113519	-0.01337572	-0.00693333	
       208	-0.02754896	0.00723991	-0.01466419	-0.00339002	
       209	0.00305236	0.00015329	-0.01273148	0.00240812	
       210	0.01690349	-0.00628909	-0.01015453	0.00788415	
       211	0.00723991	-0.01788539	-0.00661121	-0.00081307	
       212	0.00208601	-0.01981810	-0.00113519	0.00015329	
       213	-0.01981810	-0.02046234	0.00079753	0.00208601	
       214	-0.00661121	-0.01949598	0.00305236	0.00852839	
       215	0.00788415	-0.01659691	0.00723991	0.00562932	
       216	0.01110534	-0.01595267	0.01013899	0.00015329	
       217	0.01078323	-0.02787108	0.00885051	0.00111965	
       218	0.00305236	-0.00596698	0.01207170	0.00015329	
       219	0.00659567	0.05330297	0.00820627	-0.00306790	
       220	0.00723991	0.06038959	0.01142746	-0.00016883	
       221	-0.00757757	0.04267303	0.00852839	-0.00016883	
       222	-0.00403426	0.04911542	0.00595144	0.00240812	
       223	-0.00016883	0.04009608	0.00079753	-0.00306790	
       224	-0.02561625	0.02721131	-0.00628909	-0.00628909	
       225	-0.02336141	0.02205740	-0.00983241	-0.00177943	
       226	-0.03044804	0.02173528	-0.01208724	0.00015329	
       227	-0.02110658	-0.00242366	-0.01176512	-0.00242366	
       228	-0.03753466	-0.02658261	-0.01112088	-0.00274578	
       229	-0.02851532	-0.02336141	-0.01401996	0.00079753	
       230	-0.00242366	-0.03238075	-0.00951029	0.00820627	
       231	0.03462005	0.01819197	-0.00049095	-0.04140009	
       232	0.00595144	0.00981687	0.00047541	0.00949475	
       233	0.00981687	0.04686058	0.00047541	0.00240812	
       234	0.01368230	0.03977396	0.00530720	0.00273024	
       235	0.01013899	0.00047541	0.00627356	0.00208601	
       236	0.01046111	0.00208601	0.01110534	-0.00661121	
       237	0.00756203	0.01207170	0.01529289	-0.00918817	
       238	0.01078323	-0.00435638	0.01529289	-0.00822181	
       239	0.00691779	0.01432654	0.00852839	-0.00983241	
       240	0.01078323	0.01400442	0.00595144	-0.00661121	
       241	0.01336018	-0.00177943	0.00401872	-0.00371214	
       242	0.00562932	-0.00951029	0.00176389	-0.00210154	
       243	0.00659567	-0.01691903	-0.00339002	0.00208601	
       244	0.00337448	-0.02980380	-0.00757757	0.00723991	
       245	0.00434084	-0.03399135	-0.00983241	0.00595144	
       246	-0.00081307	-0.02561625	-0.00918817	0.01013899	
       247	-0.00339002	-0.01659691	-0.01337572	0.00240812	
       248	0.01303806	-0.01369784	-0.01337572	0.00240812	
       249	0.01110534	-0.00918817	-0.01240936	0.00176389	
       250	0.01625925	-0.00596698	-0.00532274	0.00144177	
       251	0.01368230	-0.01305360	-0.00596698	0.00530720	
       252	0.01207170	-0.01820751	-0.00210154	0.00079753	
       253	0.01013899	-0.01981810	0.00111965	-0.00177943	
       254	0.01110534	-0.01498631	0.00273024	-0.00210154	
       255	0.00788415	-0.01208724	0.00627356	-0.00339002	
       256	0.00273024	-0.01047664	0.00885051	-0.00661121	
       257	0.00176389	-0.01047664	0.01336018	-0.00467850	
       258	-0.00242366	-0.01015453	0.01239382	-0.00177943	
       259	-0.00725545	-0.00596698	0.01271594	-0.00403426	
       260	-0.00596698	-0.00661121	0.00691779	-0.00081307	
       261	-0.00951029	-0.00661121	0.00595144	-0.00177943	
       262	-0.01401996	0.00079753	0.00208601	-0.00145731	
       263	-0.01434208	-0.00113519	-0.00371214	-0.00242366	
       264	-0.00918817	-0.00467850	-0.00306790	-0.00113519	
       265	-0.00757757	-0.00983241	-0.00822181	-0.00177943	
       266	-0.00564486	-0.01820751	-0.00886605	0.00208601	
       267	-0.00951029	-0.02271718	-0.01047664	0.00305236	
       268	-0.00628909	-0.02464989	-0.01401996	0.00337448	
       269	0.00434084	-0.01595267	-0.01176512	0.00756203	
       270	0.00273024	-0.01563055	-0.01015453	0.01046111	
       271	0.00401872	-0.00306790	-0.00789969	0.00852839	
       272	-0.00339002	0.04782694	-0.00403426	-0.00113519	
       273	-0.00242366	0.04074032	0.00047541	-0.00306790	
       274	-0.00113519	0.02495647	0.00015329	-0.00339002	
       275	-0.02336141	0.02237952	0.01013899	-0.00113519	
       276	-0.00822181	0.01851409	0.01013899	-0.00145731	
       277	0.00079753	0.01529289	0.01271594	0.00015329	
       278	0.01142746	0.00820627	0.01110534	0.00079753	
       279	0.00917263	0.00691779	0.00820627	-0.00113519	
       280	-0.00274578	0.00949475	0.00981687	0.00144177	
       281	-0.00661121	0.01174958	0.00723991	-0.00049095	
       282	-0.00564486	0.00659567	0.00401872	-0.00306790	
       283	-0.00210154	0.00434084	-0.00113519	0.00144177	
       284	-0.00210154	0.00176389	-0.00274578	-0.00081307	
       285	0.00723991	-0.00403426	-0.00661121	0.00401872	
       286	0.00369660	-0.00918817	-0.00854393	0.00434084	
       287	-0.00467850	-0.01788539	-0.01015453	0.00530720	
       288	-0.00596698	-0.01369784	-0.01208724	0.00530720	
       289	-0.01756327	-0.01208724	-0.01079876	0.00466296	
       290	-0.00822181	-0.00951029	-0.00918817	0.00434084	
       291	-0.00435638	-0.00854393	-0.00500062	0.00015329	
       292	0.00530720	-0.00983241	-0.00113519	0.00111965	
       293	0.00208601	-0.00661121	-0.00049095	-0.00016883	
       294	0.01303806	0.01915833	0.00659567	-0.00274578	
       295	-0.00789969	0.05040389	0.00691779	-0.00371214	
       296	-0.00177943	0.02560071	0.00788415	-0.00693333	
       297	0.00047541	0.01400442	0.01110534	-0.00435638	
       298	-0.00757757	0.00530720	0.01142746	-0.00242366	
       299	-0.01949598	0.00111965	0.00466296	-0.00242366	
       300	-0.00628909	-0.00049095	0.00627356	0.00015329	
       301	0.03397581	-0.00564486	0.00273024	-0.00113519	
       302	0.03300945	-0.01691903	-0.00145731	-0.00177943	
       303	0.01432654	-0.02110658	-0.00177943	0.00208601	
       304	0.01013899	-0.00951029	-0.00822181	0.00530720	
       305	0.00723991	-0.01208724	-0.00854393	0.00530720	
       306	-0.00789969	0.00434084	-0.01176512	-0.00049095	
       307	-0.02593837	0.00530720	-0.01144300	0.00047541	
       308	-0.02271718	0.00723991	-0.01305360	0.00015329	
       309	-0.00145731	0.01013899	-0.00822181	0.00144177	
       310	0.00530720	0.00627356	-0.01112088	-0.00339002	
       311	-0.00403426	0.01271594	-0.00757757	-0.00016883	
       312	-0.00564486	0.00079753	-0.00306790	0.00466296	
       313	-0.00016883	-0.00951029	-0.00210154	0.00466296	
       314	-0.00661121	-0.01691903	0.00273024	0.00208601	
       315	-0.00210154	-0.01756327	0.00595144	-0.00081307	
       316	-0.00564486	-0.00596698	0.01078323	0.00047541	
       317	-0.00339002	0.00144177	0.00756203	-0.00242366	
       318	-0.00403426	0.01915833	0.00885051	-0.00951029	
       319	-0.00210154	0.02527859	0.00530720	-0.01176512	
       320	-0.00113519	0.01432654	0.00756203	-0.01079876	
       321	0.01593713	0.00337448	0.00691779	-0.00435638	
       322	0.01336018	0.00079753	0.00273024	0.00337448	
       323	0.01625925	-0.01563055	-0.00467850	0.00981687	
       324	0.00885051	-0.00500062	-0.00467850	0.00498508	
       325	-0.00693333	0.00852839	-0.00339002	0.00337448	
       326	-0.02787108	-0.00693333	-0.00467850	0.00273024	
       327	-0.03463559	-0.01273148	-0.01079876	-0.00049095	
       328	-0.01530843	-0.01273148	-0.00983241	0.00111965	
       329	-0.02851532	-0.01659691	-0.01369784	-0.00339002	
       330	-0.03399135	-0.01466419	-0.00661121	0.00305236	
       331	0.01432654	-0.00371214	-0.00339002	-0.00339002	
       332	0.02817766	0.01271594	-0.00016883	-0.00467850	
       333	0.01142746	0.00015329	0.00208601	0.00015329	
       334	0.00240812	0.01497078	0.00659567	0.00208601	
       335	0.00208601	0.03204310	0.00917263	0.00337448	
       336	0.00659567	0.04524999	0.01980256	0.01078323	
       337	0.01046111	0.02270164	0.01336018	0.00047541	
       338	0.00562932	0.00659567	0.01207170	-0.00435638	
       339	0.00401872	-0.01144300	0.00981687	-0.00628909	
       340	0.00595144	-0.00306790	0.01174958	-0.00113519	
       341	-0.00371214	-0.00210154	0.00756203	-0.00113519	
       342	0.00434084	-0.00886605	-0.00113519	0.00047541	
       343	0.00305236	-0.01691903	-0.00339002	-0.00177943	
       344	0.00176389	-0.01724115	-0.00467850	-0.00306790	
       345	-0.00177943	-0.01079876	-0.00661121	-0.00145731	
       346	0.00208601	-0.00951029	-0.01047664	0.00176389	
       347	-0.00081307	-0.00886605	-0.01144300	-0.00177943	
       348	0.00273024	-0.00886605	-0.01079876	0.00015329	
       349	0.00079753	0.01561501	-0.01015453	0.00273024	
       350	0.00144177	0.01432654	-0.00918817	0.00273024	
       351	-0.00145731	0.00595144	-0.00242366	0.00240812	
       352	0.00240812	-0.00822181	-0.00177943	0.00305236	
       353	-0.00242366	-0.01401996	0.00208601	0.00305236	
       354	-0.00339002	-0.01498631	0.00659567	0.00401872	
       355	-0.00757757	-0.01595267	0.00949475	0.00176389	
       356	-0.00177943	-0.01530843	0.01013899	-0.00306790	
       357	0.00111965	-0.02271718	0.01432654	-0.00467850	
       358	0.00337448	-0.01112088	0.00949475	-0.00757757	
       359	0.00885051	0.01239382	0.00917263	-0.00467850	
       360	0.01915833	-0.02690473	0.00562932	-0.00242366	
       361	0.01432654	-0.04301069	0.00369660	-0.00822181	
       362	-0.00628909	-0.03689042	-0.00145731	-0.00177943	
       363	-0.01820751	-0.00500062	-0.00500062	0.00015329	
       364	-0.01240936	0.04557210	-0.00371214	0.00723991	
       365	0.00434084	0.07520708	-0.01240936	0.01432654	
       366	0.00562932	0.04750482	-0.01337572	0.01368230	
       367	-0.00403426	0.05426932	-0.01434208	0.01207170	
       368	-0.00210154	0.02624495	-0.01369784	0.00208601	
       369	-0.00049095	0.02624495	-0.01627479	-0.00210154	
       370	0.00949475	0.02399011	-0.01176512	-0.00532274	
       371	0.00144177	0.01174958	-0.00596698	-0.00371214	
       372	0.00208601	0.00208601	0.00015329	0.00176389	
       373	0.00949475	-0.01047664	0.00047541	-0.00210154	
       374	0.00176389	-0.01112088	0.00273024	-0.00274578	
       375	-0.01885174	-0.00886605	0.00949475	-0.00596698	
       376	-0.02336141	-0.02432777	0.01336018	-0.00693333	
       377	-0.03205863	-0.00918817	0.01464866	-0.00532274	
       378	-0.02658261	0.00273024	0.01142746	-0.00725545	
       380	-0.01112088	0.01013899	0.00820627	-0.00789969	
       380	0.00434084	0.00015329	0.00917263	-0.00242366	
       381	0.01174958	0.00144177	0.00434084	0.00047541	
       382	0.02721131	0.00401872	0.00047541	0.00595144	
       383	0.01110534	-0.01273148	-0.00435638	0.00820627	
       384	0.01368230	0.00111965	-0.00274578	0.00981687	
       385	0.02334588	-0.01144300	-0.00467850	0.00788415	
       386	0.01529289	-0.02110658	-0.01273148	0.00756203	
       387	0.00240812	-0.02690473	-0.01305360	0.00434084	
       389	-0.01079876	-0.01820751	-0.01305360	-0.00049095	
       390	-0.01498631	-0.00757757	-0.00918817	0.00369660	
       391	-0.01530843	-0.00306790	-0.01112088	0.00208601	
       392	-0.02271718	-0.00403426	-0.00177943	0.00401872	
       393	-0.01981810	-0.00918817	-0.00435638	-0.00016883	
       394	-0.01595267	-0.01208724	0.00015329	-0.00854393	
       395	-0.01852963	0.00595144	0.00240812	-0.00532274	
       396	0.00917263	0.02109104	0.00627356	-0.00532274	
       397	0.01142746	0.01593713	0.00917263	-0.00435638	
       398	0.00337448	0.01142746	0.00820627	-0.00435638	
       399	0.00434084	0.00273024	0.01464866	-0.00339002	
       400	0.00273024	0.01497078	0.01368230	-0.00210154	
       401	-0.00242366	0.01786985	0.00885051	-0.00210154	
       402	0.01400442	-0.00081307	0.00434084	0.00401872	
       403	0.02882190	-0.01563055	0.00273024	-0.00113519	
       404	0.04589422	-0.01756327	-0.00242366	-0.00242366	
       405	0.03429793	-0.01434208	-0.00532274	-0.00532274	
       406	0.01207170	-0.01401996	-0.00467850	0.00111965	
       407	-0.00177943	-0.03721254	-0.00725545	-0.00016883	
       408	-0.02014022	-0.02561625	-0.01176512	-0.00306790	
       409	-0.01917386	-0.01112088	-0.01595267	-0.00016883	
       410	-0.00628909	0.01271594	-0.01144300	-0.00371214	
       411	-0.01466419	0.02044680	-0.00822181	-0.00177943	
       412	-0.02271718	0.00273024	-0.01079876	0.00337448	
       413	-0.00049095	0.00885051	-0.00403426	0.00691779	
       414	0.01142746	0.01915833	0.00015329	0.00885051	
       415	0.01046111	0.00852839	0.00434084	0.00595144	
       416	0.00530720	0.00240812	0.00273024	0.00047541	
       417	-0.00564486	-0.00210154	0.00788415	-0.00145731	
       418	-0.01917386	-0.00177943	0.01078323	-0.00016883	
       419	-0.01498631	-0.00403426	0.00981687	-0.00339002	
       420	-0.01595267	-0.01144300	0.00337448	-0.00918817	
       421	-0.01852963	-0.01144300	0.00562932	-0.00210154	
       422	-0.01885174	-0.01015453	0.00562932	0.00434084	
       423	0.01915833	-0.00532274	0.00144177	0.00144177	
       424	-0.00725545	0.00047541	-0.00242366	0.00176389	
       425	-0.02432777	0.00981687	-0.00274578	0.00111965	
       426	-0.00532274	0.01046111	-0.00242366	0.00466296	
       427	0.00369660	0.00885051	-0.01112088	0.00015329	
       428	0.00240812	0.00434084	-0.00951029	-0.00177943	
       429	0.00273024	0.00434084	-0.00983241	-0.00081307	
       430	0.00305236	0.00401872	-0.00725545	0.00079753	
       431	0.00015329	0.00337448	-0.00789969	-0.00306790	
       432	0.00369660	-0.00435638	-0.00306790	-0.00306790	
       433	0.00208601	-0.00049095	-0.00371214	-0.00532274	
       434	0.00273024	0.00337448	0.00144177	0.00047541	
       435	0.00305236	0.00401872	0.00595144	0.00176389	
       436	0.00530720	0.00144177	0.00756203	0.00047541	
       437	0.00401872	0.00047541	0.00917263	-0.00306790	
       438	0.00949475	0.00111965	0.01336018	-0.00177943	
       439	0.00788415	-0.01466419	0.01110534	-0.00306790	
       440	0.01271594	-0.01595267	0.01207170	-0.00628909	
       441	0.01207170	-0.02207294	0.00820627	-0.00596698	
       442	0.00498508	-0.03366923	0.00788415	0.00144177	
       443	0.01497078	-0.02529413	0.00015329	-0.00016883	
       444	0.01013899	-0.01949598	-0.00242366	0.00627356	
       445	0.00723991	0.01110534	-0.00113519	0.01174958	
       446	0.00627356	0.02495647	-0.00500062	0.00820627	
       447	-0.00306790	0.00659567	-0.00886605	0.01013899	
       448	-0.01144300	0.01142746	-0.00983241	0.00820627	
       449	-0.01208724	0.01754773	-0.01047664	0.00240812	
       450	-0.01724115	0.00144177	-0.01627479	0.00273024	
       451	-0.00500062	0.01078323	-0.01047664	0.00305236	
       452	-0.00210154	0.02882190	-0.00467850	-0.00049095	
       453	0.00369660	0.01593713	-0.00210154	0.00144177	
       454	-0.00210154	0.00659567	0.00273024	-0.00339002	
       455	-0.01369784	-0.00371214	0.00305236	-0.00661121	
       456	-0.01563055	-0.01305360	0.00369660	-0.00500062	
       457	-0.00532274	-0.01305360	0.00240812	-0.00113519	
       458	-0.01659691	-0.00371214	0.00949475	0.00176389	
       459	-0.02175082	-0.00177943	0.00562932	0.00337448	
       460	-0.00886605	0.00047541	0.00530720	-0.00339002	
       461	0.00691779	0.00627356	0.00498508	-0.00371214	
       462	0.00562932	0.02721131	0.00111965	-0.00661121	
       463	0.00144177	0.01400442	-0.00016883	-0.00403426	
       464	0.00466296	-0.01659691	-0.00500062	-0.00435638	
       465	0.02109104	-0.01337572	-0.00339002	-0.00274578	
       466	0.00466296	-0.00822181	-0.00467850	0.00208601	
       467	-0.00177943	-0.00983241	-0.01112088	0.00305236	
       468	0.00337448	-0.00951029	-0.01595267	-0.00306790	
       469	0.00401872	0.00047541	-0.01305360	-0.00016883	
       470	-0.00177943	0.01690349	-0.01015453	0.00788415	
       471	-0.00371214	0.01174958	-0.00886605	0.00595144	
       472	0.00820627	-0.00306790	-0.00693333	0.00337448	
       473	0.00756203	-0.00564486	-0.00564486	0.00176389	
       474	0.00530720	-0.00532274	-0.00081307	0.00047541	
       475	0.00562932	0.00305236	0.00369660	-0.00564486	
       476	-0.00145731	0.01851409	0.00820627	-0.00918817	
       477	-0.00274578	0.00852839	0.01400442	-0.00532274	
       478	0.00273024	-0.00371214	0.01174958	0.00079753	
       479	0.00079753	-0.00564486	0.00917263	0.00144177	
       480	0.00047541	-0.00210154	0.01432654	-0.00016883	
       481	-0.00435638	0.01142746	0.00723991	-0.00145731	
       482	-0.00371214	0.01207170	0.00273024	0.00144177	
       483	-0.00854393	0.00240812	0.00015329	0.00434084	
       484	-0.00628909	-0.00145731	-0.00371214	0.00498508	
       485	-0.00532274	-0.00274578	-0.00693333	0.00434084	
       486	0.00079753	-0.01240936	-0.00757757	0.00208601	
       487	-0.00145731	-0.01112088	-0.01079876	-0.00016883	
       488	0.00305236	-0.00725545	-0.00983241	-0.00242366	
       489	0.00466296	-0.00435638	-0.00596698	-0.00177943	
       490	0.00723991	-0.00177943	-0.01144300	-0.00274578	
       491	0.01690349	-0.00274578	-0.00951029	-0.00210154	
       492	0.01690349	0.00144177	-0.00596698	0.00079753	
       493	0.01980256	0.00337448	-0.00210154	-0.00145731	
       494	0.00723991	0.00401872	0.00466296	-0.00500062	
       495	-0.00822181	-0.00339002	0.00369660	-0.00500062	
       496	-0.01917386	-0.00306790	0.00691779	0.00079753	
       497	-0.02980380	0.00659567	0.00917263	0.00466296	
       498	-0.02142870	0.00530720	0.01207170	-0.00177943	
       499	0.00949475	-0.01369784	0.01207170	-0.00274578	
       500	-0.01595267	-0.00661121	0.00659567	-0.00210154	
       501	-0.02078446	0.00240812	0.01142746	-0.00049095	
       502	-0.00725545	0.00111965	0.00337448	-0.00049095	
       503	-0.00177943	0.00015329	0.00047541	-0.00016883	
       504	0.00208601	-0.00339002	-0.00306790	0.00434084	
       505	0.00595144	-0.00661121	-0.00918817	-0.00210154	
       506	0.01046111	-0.00596698	-0.01015453	0.00015329	
       507	0.00820627	-0.00951029	-0.01047664	-0.00274578	
       508	-0.00242366	-0.02368353	-0.01144300	-0.00371214	
       509	-0.00306790	-0.02432777	-0.01434208	-0.00016883	
       510	0.00015329	-0.02593837	-0.00628909	0.00273024	
       511	-0.00177943	-0.03044804	-0.00789969	-0.00145731	
       512	0.00659567	-0.02529413	-0.00564486	0.00047541	
       513	0.00530720	-0.01595267	-0.00081307	0.00434084	
       514	0.00305236	0.00756203	0.00111965	0.00273024	
       515	-0.00467850	0.05523568	0.00691779	-0.00016883	
       516	-0.00725545	0.06715410	0.00852839	-0.00145731	
       517	-0.00789969	0.01368230	0.01110534	-0.00177943	
       518	-0.00274578	0.01754773	0.01400442	-0.00210154	
       519	-0.00339002	0.02012468	0.01400442	-0.00822181	
       520	0.00434084	0.00949475	0.01400442	0.00111965	
       521	-0.00854393	0.00788415	0.01078323	0.00337448	
       522	-0.00983241	0.01110534	0.00852839	-0.00016883	
       523	-0.00339002	0.01400442	0.00466296	-0.00403426	
       524	-0.00081307	0.01980256	-0.00016883	-0.00016883	
       525	0.00369660	0.00659567	-0.00467850	0.00305236	
       526	-0.00177943	-0.00532274	-0.00242366	0.00917263	
       527	0.01980256	-0.00564486	-0.01047664	0.01013899	
       528	0.01368230	-0.00210154	-0.01208724	0.00337448	
       529	0.01013899	-0.00081307	-0.01563055	0.00240812	
       530	0.01013899	0.00079753	-0.01240936	0.00240812	
       531	0.00337448	-0.00242366	-0.01047664	0.00401872	
       532	0.00756203	-0.00596698	-0.00918817	-0.00371214	
       532	0.00047541	-0.00661121	-0.00661121	-0.00435638	
       533	-0.00339002	-0.00242366	-0.00177943	-0.00596698	
       534	0.00111965	-0.00596698	0.00401872	-0.01273148	
       535	0.00208601	-0.00789969	0.00176389	-0.00693333	
       536	0.00369660	-0.00693333	0.00562932	-0.00306790	
       537	0.00434084	-0.00886605	0.01207170	0.00047541	
       538	-0.00274578	-0.01498631	0.01142746	-0.00242366	
       539	-0.01079876	-0.01434208	0.00466296	-0.00628909	
       540	-0.01015453	-0.01273148	0.00756203	-0.00242366	
       541	0.00337448	-0.00983241	0.00498508	-0.00177943	
       542	-0.00693333	-0.00339002	0.00434084	0.00240812	
       543	-0.01563055	0.00530720	0.00079753	0.00530720	
       544	-0.01949598	0.01497078	-0.00435638	0.00627356	
       545	-0.01273148	0.02205740	-0.00435638	0.00434084	
       546	-0.01337572	-0.00306790	-0.00951029	-0.00177943	
       547	-0.00500062	-0.01047664	-0.01305360	-0.00339002	
       548	-0.00113519	-0.01112088	-0.00983241	0.00144177	
       549	-0.00339002	-0.01337572	-0.01434208	0.00434084	
       550	-0.00500062	-0.00693333	-0.00628909	0.00659567	
       551	-0.00081307	-0.00145731	-0.00661121	0.00305236	
       552	-0.00725545	0.04170667	-0.00371214	-0.00016883	
       553	0.00337448	0.02721131	0.00144177	-0.00113519	
       554	0.00595144	0.01464866	0.00273024	0.00176389	
       555	0.00659567	0.00820627	0.00273024	0.00595144	
       556	0.02173528	-0.00145731	0.00627356	0.00273024	
       557	0.01722561	-0.00274578	0.01207170	0.00240812	
       558	0.00498508	-0.01240936	0.00723991	-0.00081307	
       559	-0.00757757	-0.00693333	0.00852839	-0.00371214	
       560	-0.00564486	-0.01691903	0.00723991	-0.00274578	
       561	-0.00467850	-0.02303929	0.00434084	-0.00403426	
       562	-0.00789969	-0.00145731	0.00208601	-0.00145731	
       563	-0.00210154	-0.00339002	-0.00113519	0.00079753	
       564	-0.00596698	-0.01337572	-0.00467850	0.00208601	
       565	0.00273024	0.00079753	-0.00500062	0.00273024	
       566	0.00498508	0.01754773	-0.00725545	-0.00049095	
       567	0.01013899	0.00208601	-0.00886605	-0.00145731	
       568	0.01529289	-0.00145731	-0.00789969	-0.00145731	
       569	0.02173528	-0.00210154	-0.00983241	0.00079753	
       570	0.01432654	0.00015329	-0.00822181	-0.00049095	
       571	0.01400442	-0.00210154	-0.00596698	0.00176389	
       572	0.00595144	-0.01144300	-0.00339002	-0.00467850	
       573	-0.01047664	-0.02046234	0.00111965	-0.00693333	
       574	-0.01047664	-0.01659691	0.00305236	-0.00306790	
       575	-0.01530843	0.00691779	0.00498508	-0.00789969	
       576	-0.01563055	0.00788415	0.00691779	-0.00661121	
       577	-0.01466419	0.00498508	0.01207170	-0.00210154	
       578	-0.02014022	0.00820627	0.01174958	-0.00049095	
       579	-0.01369784	0.01529289	0.00885051	-0.00306790	
       580	-0.00596698	0.03912972	0.00949475	0.00337448	
       581	-0.01112088	0.02141316	0.00337448	0.00015329	
       582	-0.01015453	0.00401872	-0.00081307	0.00176389	
       583	-0.01015453	-0.00210154	-0.00371214	0.00788415	
       584	-0.02336141	-0.01401996	-0.00693333	0.00627356	
       585	-0.02078446	-0.00113519	-0.00951029	0.00756203	
       586	0.01625925	0.00498508	-0.00789969	-0.00467850	
       587	0.03333157	-0.01949598	-0.00983241	-0.00113519	
       588	0.03784124	-0.02336141	-0.00789969	-0.00339002	
       589	0.02882190	-0.01691903	-0.01273148	-0.00628909	
       590	0.01013899	-0.00532274	-0.00822181	-0.00242366	
       591	-0.00661121	0.00498508	0.00047541	-0.00049095	
       592	-0.01401996	0.00273024	-0.00242366	0.00208601	
       593	-0.01144300	0.00079753	0.00498508	0.00240812	
       594	0.00176389	0.00337448	0.00723991	0.00240812	
       595	-0.01788539	0.01174958	0.00756203	-0.00081307	
       596	-0.02593837	0.00562932	0.00756203	0.00369660	
       597	-0.00242366	0.00176389	0.01110534	0.00627356	
       598	0.02721131	-0.00532274	0.00949475	-0.00113519	
       599	0.02173528	-0.00983241	0.00659567	-0.00242366	
       600	0.01529289	-0.00983241	0.00820627	-0.00016883	
       601	0.02141316	-0.01112088	-0.00081307	-0.00210154	
       602	0.01400442	-0.00693333	-0.00081307	-0.00371214	
       603	0.00820627	-0.00532274	-0.00145731	-0.00145731	
       604	-0.00435638	0.00047541	-0.00371214	-0.00177943	
       605	-0.01047664	-0.00049095	-0.00822181	-0.00210154	
       606	-0.00789969	-0.00371214	-0.01079876	-0.00016883	
       607	-0.01885174	-0.00113519	-0.01208724	-0.00467850	
       608	-0.03366923	0.01046111	-0.01015453	-0.00016883	
       609	-0.02851532	0.01593713	-0.00757757	0.00079753	
       610	-0.01144300	-0.00339002	-0.00564486	-0.00339002	
       611	-0.00371214	-0.01305360	-0.00725545	-0.00725545	
       612	0.00047541	-0.00789969	-0.00210154	-0.00403426	
       613	0.00788415	-0.01144300	0.00176389	-0.00435638	
       614	0.02109104	-0.00886605	0.00466296	0.00208601	
       615	0.00949475	-0.00532274	0.00917263	0.00208601	
       616	-0.01820751	0.00981687	0.00981687	0.00852839	
       617	-0.01917386	0.01883621	0.01207170	0.00820627	
       618	0.03526429	0.00949475	0.01174958	-0.00532274	
       619	0.06457714	0.00337448	0.01046111	-0.00596698	
       620	0.01529289	0.00273024	0.00659567	-0.00145731	
       621	-0.01112088	0.00917263	0.00305236	0.00144177	
       622	-0.02787108	0.01400442	0.00273024	0.00498508	
       623	-0.01144300	0.01207170	-0.00177943	-0.00274578	
       624	0.00691779	0.00885051	-0.00564486	0.00015329	
       625	0.00305236	0.01271594	-0.01208724	0.00756203	
       626	0.00401872	0.00208601	-0.01176512	0.00659567	
       627	-0.00306790	0.00144177	-0.01208724	0.00305236	
       628	-0.00564486	-0.00145731	-0.00983241	0.00047541	
       629	-0.00016883	-0.00532274	-0.01047664	0.00111965	
       630	0.00466296	-0.00789969	-0.00822181	0.00079753	
       631	0.00466296	-0.00628909	-0.00564486	0.00273024	
       632	0.00820627	-0.00886605	-0.00210154	0.00240812	
       633	0.00723991	-0.00757757	0.00176389	0.00401872	
       634	-0.00081307	-0.00339002	0.00498508	0.00208601	
       635	-0.00596698	0.01464866	0.00981687	-0.00145731	
       636	-0.01176512	0.01497078	0.01013899	-0.00435638	
       637	-0.00757757	0.00401872	0.01013899	-0.00467850	
       638	-0.00822181	-0.00049095	0.00981687	-0.00113519	
       639	0.00047541	-0.00274578	0.00627356	-0.00113519	
       640	0.00434084	-0.00789969	0.00723991	0.00047541	
       641	0.00530720	-0.01047664	0.00530720	-0.00693333	
       642	0.00530720	-0.01079876	0.00369660	-0.00274578	
       643	-0.00177943	-0.01305360	-0.00177943	-0.00500062	
       644	-0.00339002	-0.00500062	-0.00661121	-0.00661121	
       645	-0.00467850	0.00015329	-0.00822181	-0.00306790	
       646	-0.00145731	0.01078323	-0.01240936	0.00111965	
       647	-0.00081307	0.01271594	-0.01208724	0.00627356	
       648	-0.00983241	0.01851409	-0.00951029	0.01078323	
       649	-0.01369784	0.01593713	-0.01047664	0.00756203	
       650	-0.02271718	0.01690349	-0.00789969	0.00337448	
       651	-0.01369784	-0.00113519	-0.00371214	-0.00145731	
       652	-0.00145731	-0.02368353	-0.00403426	-0.00306790	
       653	0.00208601	-0.03689042	0.00144177	-0.00177943	
       654	0.00337448	-0.04204433	0.00691779	0.00079753	
       655	0.00369660	-0.02593837	0.01174958	-0.00242366	
       656	-0.00113519	0.02399011	0.01013899	-0.00081307	
       657	0.00047541	0.03043250	0.01142746	0.00111965	
       658	0.00111965	0.02109104	0.01368230	0.00144177	
       659	-0.00854393	0.03912972	0.00820627	0.00144177	
       660	0.00305236	0.01786985	0.00756203	0.00047541	
       661	0.01400442	0.01110534	0.00627356	-0.00242366	
       662	0.02237952	0.01174958	0.00337448	-0.00435638	
       663	0.02399011	0.00337448	-0.00145731	-0.00210154	
       664	0.01786985	-0.00435638	-0.00306790	-0.00242366	
       665	0.00917263	-0.02787108	-0.00854393	-0.00210154	
       666	-0.00822181	-0.02851532	-0.01015453	-0.00113519	
       667	-0.01047664	-0.01691903	-0.01337572	0.00111965	
       668	0.00369660	-0.00210154	-0.01047664	0.00240812	
       669	-0.01563055	0.02044680	-0.01305360	0.00047541	
       670	-0.02658261	0.00498508	-0.01079876	-0.00016883	
       671	-0.00983241	-0.00435638	-0.00822181	-0.00403426	
       672	-0.00081307	-0.00725545	-0.00274578	0.00273024	
       673	0.00111965	-0.00693333	0.00047541	0.00240812	
       674	0.00111965	-0.00435638	0.00627356	0.00176389	
       675	-0.00339002	-0.00274578	0.01046111	-0.00339002	
       676	-0.00500062	-0.00145731	0.00917263	-0.00081307	
       677	-0.00274578	0.00273024	0.01078323	-0.00113519	
       678	-0.00049095	-0.00210154	0.01239382	-0.00113519	
       679	-0.01047664	-0.00210154	0.00852839	-0.00371214	
       680	-0.00467850	-0.00145731	0.00756203	-0.00177943	
       681	-0.00274578	-0.00210154	0.00079753	0.00562932	
       682	0.01271594	-0.00339002	-0.00049095	0.00337448	
       683	0.02141316	-0.01434208	-0.00403426	0.00498508	
       684	0.00949475	-0.01981810	-0.00596698	0.00369660	
       685	-0.00113519	-0.00596698	-0.00693333	-0.00145731	
       686	-0.00274578	0.00498508	-0.00886605	-0.00500062	
       687	0.00111965	0.00562932	-0.01047664	0.00111965	
       688	0.00240812	-0.00210154	-0.01015453	0.00562932	
       689	0.00401872	-0.00403426	-0.01015453	0.00562932	
       690	0.01368230	0.00144177	-0.00789969	-0.00210154	
       691	0.01368230	0.00723991	-0.00693333	-0.00596698	
       692	0.00015329	0.01464866	-0.00274578	-0.00564486	
       693	-0.00339002	0.00852839	0.00176389	-0.00435638	
       694	-0.00242366	-0.01015453	0.00595144	0.00015329	
       695	-0.01369784	-0.01337572	0.00756203	-0.00113519	
       696	-0.00661121	-0.01208724	0.01174958	0.00111965	
       697	-0.00145731	-0.01015453	0.00981687	-0.00049095	
       698	0.00466296	-0.01047664	0.01239382	-0.00016883	
       699	0.00595144	0.00595144	0.00852839	-0.00113519	
       700	-0.00306790	0.04331727	0.00691779	-0.00210154	
       701	-0.00177943	0.04428363	0.00627356	0.00176389	
       702	-0.00113519	0.02141316	0.00144177	-0.00049095	
       703	-0.00371214	0.01497078	-0.00306790	0.00111965	
       704	0.00305236	0.00852839	-0.00596698	-0.00242366	
       705	-0.00081307	0.00466296	-0.00789969	-0.00371214	
       706	-0.01788539	0.00917263	-0.01144300	-0.00145731	
       707	-0.02464989	0.00466296	-0.01047664	0.00337448	
       708	-0.01788539	0.00176389	-0.00854393	0.00369660	
       709	-0.01047664	-0.00661121	-0.00854393	-0.00049095	
       710	-0.00274578	-0.00564486	-0.00435638	0.00047541	
       711	0.00756203	-0.00918817	-0.00467850	0.00208601	
       712	0.00917263	-0.00596698	-0.00049095	-0.00016883	
       713	0.00562932	-0.00661121	0.00176389	-0.00113519	
       714	0.00788415	-0.01498631	0.00337448	-0.00081307	
       715	0.01046111	-0.02400565	0.00788415	-0.00661121	
       716	0.01432654	-0.02336141	0.00917263	-0.00822181	
       717	0.00208601	-0.00145731	0.01046111	-0.00918817	
       718	-0.00016883	0.01013899	0.00981687	0.00015329	
       719	0.00659567	-0.00274578	0.00788415	0.00111965	
       720	-0.00113519	-0.01112088	0.00595144	0.00176389	
       721	-0.00081307	-0.01401996	0.00595144	0.00015329	
       722	-0.00242366	-0.02819320	-0.00145731	0.00208601	
       723	-0.00339002	-0.02980380	-0.00564486	0.00176389	
       724	0.00079753	-0.01917386	-0.00854393	0.00369660	
       725	-0.00596698	-0.01176512	-0.00886605	0.00691779	
       726	-0.00242366	-0.00951029	-0.00983241	0.00240812	
       727	0.01464866	0.00466296	-0.01112088	-0.00113519	
       728	0.01336018	0.02946614	-0.01112088	-0.00081307	
       729	0.00852839	0.06650986	-0.00918817	-0.00049095	
       730	-0.00177943	0.01625925	-0.00661121	-0.00081307	
       731	0.00273024	0.02978826	-0.00435638	-0.00371214	
       732	-0.01047664	0.02109104	0.00079753	-0.00532274	
       733	-0.02626049	0.00627356	0.00273024	-0.00145731	
       734	-0.02303929	-0.01305360	0.00691779	0.00659567	
       735	0.02527859	-0.00532274	0.00852839	0.00530720	
       736	-0.00403426	-0.00274578	0.00917263	0.00305236	
       737	-0.02271718	-0.01659691	0.01078323	0.00530720	
       738	-0.01144300	-0.00113519	0.00981687	-0.00016883	
       739	0.00498508	0.00723991	0.01142746	-0.00145731	
       740	-0.00951029	0.01464866	0.00530720	0.00273024	
       741	-0.02046234	0.00981687	0.00434084	0.00434084	
       742	-0.01788539	0.00756203	-0.00113519	-0.00177943	
       743	-0.00081307	0.00595144	-0.00306790	-0.00661121	
       744	0.02431223	-0.00435638	-0.00564486	-0.00339002	
       745	0.03429793	-0.01144300	-0.00854393	-0.00049095	
       746	0.03075462	-0.01917386	-0.01273148	0.00079753	
       747	0.02946614	-0.01401996	-0.01112088	0.00305236	
       748	0.01690349	-0.00532274	-0.01079876	0.00273024	
       749	-0.00177943	0.03751912	-0.01079876	-0.00016883	
       750	-0.00016883	0.03784124	-0.00757757	-0.00145731	
       751	0.00530720	0.01013899	-0.00628909	0.00176389	
       752	-0.00016883	-0.00661121	-0.00177943	-0.00016883	
       753	-0.00661121	-0.02303929	0.00111965	-0.00016883	
       754	-0.00789969	-0.04268857	0.00401872	0.00144177	
       755	-0.00854393	-0.02883744	0.00820627	-0.00210154	
       756	-0.00113519	0.00498508	0.01174958	-0.00049095	
       758	0.00401872	0.00240812	0.01239382	-0.00306790	
       759	0.00498508	0.01497078	0.01142746	-0.00435638	
       760	0.00208601	0.01980256	0.00852839	-0.00016883	
       761	0.00015329	-0.00016883	0.00659567	-0.00113519	
       762	-0.00854393	-0.00210154	0.00369660	-0.00210154	
       763	-0.01595267	-0.00049095	0.00595144	-0.00113519	
       764	-0.02819320	0.00240812	-0.00081307	0.00208601	
       764	-0.02787108	-0.00757757	-0.00564486	0.00273024	
       765	-0.02400565	-0.01079876	-0.00596698	0.00595144	
       766	0.00208601	-0.00435638	-0.00532274	-0.00049095	
       767	0.00401872	-0.00596698	-0.00822181	-0.00532274	
       768	0.00595144	-0.00596698	-0.00854393	-0.00242366	
       770	0.00820627	-0.00693333	-0.00886605	-0.00177943	
       771	0.01142746	-0.00500062	-0.00951029	-0.00177943	
       772	0.00949475	-0.00854393	-0.00532274	0.00434084	
       773	0.01303806	-0.00693333	-0.00210154	0.00756203	
       774	0.01271594	-0.00661121	0.00144177	0.00691779	
       775	0.00885051	-0.00016883	0.00498508	0.00401872	
       776	0.00305236	-0.00371214	0.00820627	0.00079753	
       777	0.00305236	0.00047541	0.01239382	-0.00081307	
       778	-0.00532274	0.00337448	0.01142746	-0.00274578	
       779	-0.00500062	0.00240812	0.01174958	-0.00339002	
       780	-0.00274578	-0.00177943	0.00949475	0.00273024	
       781	0.00111965	-0.00016883	0.00756203	0.00208601	
       782	0.00434084	-0.00983241	0.00369660	0.00208601	
       783	-0.00016883	-0.00596698	-0.00210154	0.00176389	
       784	-0.01208724	-0.00145731	-0.00371214	0.00208601	
       785	0.00208601	-0.00306790	-0.00789969	-0.00467850	
       786	-0.00049095	-0.00306790	-0.01015453	-0.00596698	
       787	0.00208601	-0.00532274	-0.01208724	-0.00822181	
       788	0.00176389	-0.00532274	-0.01112088	-0.00951029	
       789	0.00079753	-0.00467850	-0.01466419	-0.00467850	
       790	0.00466296	-0.00693333	-0.01112088	0.00079753	
       791	0.01239382	-0.00628909	-0.00886605	0.00305236	
       792	0.02109104	-0.00403426	-0.00725545	0.00627356	
       793	0.01883621	-0.00016883	-0.00306790	0.00691779	
       794	-0.00822181	0.00949475	0.00176389	0.00305236	
       795	-0.03527983	0.01432654	0.00530720	0.00595144	
       796	-0.02529413	0.01368230	0.00756203	0.00144177	
       797	0.00337448	0.01046111	0.00820627	0.00401872	
       798	0.00949475	0.01722561	0.01174958	0.00144177	
       799	-0.01820751	0.01819197	0.01303806	-0.00822181	
       800	-0.01724115	0.01303806	0.01013899	-0.01015453	
       801	-0.00693333	0.00852839	0.00498508	-0.00757757	
       802	-0.01240936	0.00434084	0.00305236	-0.00500062	
       803	-0.02175082	0.00079753	0.00466296	-0.00177943	
       804	-0.01627479	0.00305236	-0.00049095	0.00305236	
       805	-0.00113519	0.00659567	-0.00596698	0.00595144	
       806	-0.00274578	0.00917263	-0.00596698	0.00434084	
       807	0.02076892	0.00627356	-0.01079876	0.00337448	
       808	0.02592283	-0.00242366	-0.01305360	-0.00210154	
       809	0.02463435	-0.00403426	-0.01208724	0.00723991	
       810	0.02366799	-0.00661121	-0.01112088	0.00337448	
       811	0.01819197	-0.00596698	-0.00951029	0.00595144	
       812	0.00337448	-0.00564486	-0.00822181	0.00240812	
       813	-0.00661121	-0.00757757	-0.00306790	-0.00177943	
       814	-0.01047664	-0.00564486	0.00144177	0.00047541	
       815	0.00627356	0.00047541	0.00305236	-0.00177943	
       816	-0.02690473	-0.00242366	0.00659567	0.00176389	
       817	-0.02915956	-0.00049095	0.01142746	-0.00016883	
       818	-0.00951029	-0.00306790	0.01207170	-0.00113519	
       819	-0.01240936	-0.00435638	0.01013899	-0.00145731	
       820	-0.01337572	-0.00210154	0.01078323	-0.00435638	
       821	-0.01240936	0.00627356	0.00788415	-0.00596698	
       822	-0.00371214	-0.00177943	0.00595144	-0.00177943	
       823	0.00723991	0.01497078	-0.00177943	0.00047541	
       824	0.00820627	0.01110534	-0.00306790	-0.00081307	
       825	0.00337448	0.00530720	-0.00725545	0.00015329	
       826	0.00144177	0.00144177	-0.00628909	-0.00210154	
       827	0.00337448	0.00208601	-0.00918817	-0.00210154	
       828	0.00659567	-0.00145731	-0.01015453	-0.00628909	
       829	0.01110534	-0.00339002	-0.01176512	-0.00596698	
       830	0.01303806	-0.00596698	-0.00951029	-0.00435638	
       831	0.01013899	-0.00983241	-0.01144300	0.00176389	
       832	-0.00049095	-0.01369784	-0.00564486	0.00466296	
       833	-0.00242366	-0.01659691	-0.00016883	0.00369660	
       834	-0.00725545	-0.01466419	0.00176389	0.00434084	
       835	-0.00918817	-0.01401996	0.00305236	0.00337448	
       836	-0.02239506	-0.00145731	0.00723991	0.00659567	
       837	-0.01659691	0.00627356	0.01046111	0.00369660	
       838	-0.00693333	0.02044680	0.01078323	0.00079753	
       839	0.00820627	0.02978826	0.00852839	-0.00113519	
       840	0.02785555	0.02399011	0.00434084	-0.00210154	
       841	0.02946614	0.00981687	0.00659567	0.00047541	
       842	0.01625925	0.00240812	0.00498508	-0.00274578	
       843	0.01336018	-0.01724115	0.00401872	-0.00177943	
       844	0.01013899	-0.01852963	0.00015329	-0.00016883	
       845	0.00337448	-0.01369784	-0.00403426	0.00369660	
       846	-0.00049095	-0.00532274	-0.00725545	0.00852839	
       847	-0.00661121	-0.00274578	-0.01208724	0.00208601	
       848	-0.00049095	-0.00145731	-0.01305360	0.00240812	
       849	-0.00435638	0.00788415	-0.01208724	0.00144177	
       850	0.00047541	0.00498508	-0.01079876	0.00176389	
       851	-0.00951029	0.00498508	-0.00983241	-0.00371214	
       852	-0.00242366	0.00079753	-0.00532274	-0.00210154	
       853	0.00498508	-0.00306790	-0.00242366	-0.00177943	
       854	0.00595144	-0.00951029	0.00369660	-0.00757757	
       855	0.00337448	-0.01659691	0.00659567	-0.00467850	
       856	-0.00145731	-0.00693333	0.00756203	-0.00564486	
       857	-0.00403426	-0.00274578	0.00981687	0.00079753	
       858	-0.01820751	-0.00081307	0.01110534	0.00047541	
       859	-0.02239506	-0.00951029	0.00820627	0.00047541	
       860	-0.01724115	-0.00854393	0.00852839	0.00176389	
       861	-0.02110658	-0.00467850	0.00466296	-0.00113519	
       862	-0.01852963	-0.02819320	0.00627356	0.00208601	
       863	-0.00467850	-0.03914526	0.00111965	0.00337448	
       864	-0.00661121	-0.01917386	-0.00242366	0.00208601	
       865	0.04041820	0.02431223	-0.00371214	0.00015329	
       866	0.02237952	0.05008177	-0.00757757	0.00434084	
       867	0.00562932	0.02560071	-0.01273148	0.00305236	
       868	-0.00403426	0.01883621	-0.01305360	0.00498508	
       869	0.00273024	0.02431223	-0.01079876	0.00305236	
       870	0.01400442	0.02141316	-0.00854393	0.00015329	
       871	0.02205740	0.00434084	-0.01015453	-0.00016883	
       872	0.02431223	-0.00757757	-0.00532274	-0.00081307	
       873	0.01529289	-0.01273148	-0.00210154	0.00337448	
       874	0.00917263	-0.01627479	0.00111965	-0.00274578	
       875	-0.01144300	-0.01691903	0.00595144	-0.00242366	
       876	-0.02690473	-0.01015453	0.00691779	-0.00081307	
       877	-0.02722684	-0.01530843	0.01013899	-0.00113519	
       878	-0.01659691	-0.02239506	0.01142746	-0.00339002	
       879	-0.04526552	0.00434084	0.01303806	-0.00628909	
       880	-0.03238075	0.02946614	0.01368230	-0.00435638	
       881	0.00434084	0.05298085	0.01239382	-0.00564486	
       882	0.00723991	0.02624495	0.00337448	-0.00467850	
       883	0.00144177	0.01593713	0.00369660	-0.00210154	
       884	0.00305236	0.02012468	-0.00306790	-0.00435638	
       885	-0.00532274	0.02849978	-0.00403426	-0.00113519	
       886	-0.02883744	0.01883621	-0.00532274	-0.00339002	
       887	-0.01595267	0.00852839	-0.01112088	0.00015329	
       888	0.00015329	-0.00854393	-0.01176512	0.00273024	
       889	0.00723991	-0.01691903	-0.01144300	0.00434084	
       890	0.00498508	-0.01112088	-0.00983241	0.00595144	
       891	0.00079753	-0.00371214	-0.00886605	0.00820627	
       892	0.01851409	-0.00177943	-0.00500062	0.00079753	
       893	0.02753343	-0.00500062	-0.00145731	0.00337448	
       894	-0.00854393	-0.00403426	0.00337448	0.00659567	
       895	-0.02980380	0.00015329	0.00627356	0.01142746	
       896	-0.01981810	-0.00113519	0.00852839	0.00144177	
       897	0.00111965	-0.00564486	0.00852839	-0.00371214	
       898	0.01174958	-0.02464989	0.01078323	-0.00081307	
       898	0.00949475	-0.03173651	0.01046111	-0.00049095	
       899	-0.00274578	-0.02336141	0.00820627	-0.00339002	
       900	0.00401872	-0.02046234	0.00756203	-0.00596698	
       901	0.00852839	-0.01756327	0.00562932	-0.00951029	
       902	0.00981687	-0.01659691	0.00111965	-0.00628909	
       903	0.00530720	0.00949475	-0.00049095	-0.00403426	
       904	0.00111965	0.05298085	-0.00403426	-0.00306790	
       905	0.00434084	0.02914402	-0.00757757	-0.00113519	
       906	0.01400442	-0.00661121	-0.01047664	-0.00016883	
       907	0.01303806	-0.01273148	-0.01176512	-0.00177943	
       908	0.00273024	-0.01079876	-0.01047664	-0.00016883	
       909	0.00498508	-0.00467850	-0.01176512	0.00144177	
       910	0.01174958	0.01078323	-0.00951029	0.00015329	
       911	0.01400442	0.02399011	-0.00564486	-0.00210154	
       912	0.00788415	-0.00081307	-0.00371214	0.00466296	
       913	0.00047541	-0.01015453	0.00208601	0.00466296	
       914	-0.00306790	-0.00145731	0.00498508	-0.00210154	
       915	0.00111965	-0.00532274	0.00756203	-0.00757757	
       916	0.00144177	-0.00822181	0.01174958	-0.00886605	
       917	-0.00049095	-0.00081307	0.01303806	-0.00789969	
       918	-0.00306790	0.00079753	0.01207170	-0.00274578	
       919	-0.00177943	0.00144177	0.00885051	0.00305236	
       920	0.00434084	0.01046111	0.00723991	0.00369660	
       921	-0.00049095	0.01303806	0.00273024	0.00144177	
       922	-0.00822181	0.01851409	0.00240812	0.00756203	
       923	-0.00145731	-0.00725545	-0.00435638	0.01174958	
       924	-0.01724115	-0.01724115	-0.00886605	0.00756203	
       925	-0.01724115	-0.00886605	-0.00661121	0.00176389	
       926	-0.00564486	-0.01305360	-0.01015453	0.00273024	
       927	-0.00983241	-0.01305360	-0.01208724	0.00659567	
       928	-0.01305360	-0.00435638	-0.01208724	0.00949475	
       929	0.01110534	0.00498508	-0.01144300	0.00144177	
       930	0.01046111	-0.01820751	-0.01047664	-0.00177943	
       931	0.00208601	-0.00757757	-0.00757757	-0.00081307	
       932	-0.00371214	0.00079753	-0.00306790	0.00047541	
       933	-0.00371214	-0.00403426	-0.00016883	-0.00210154	
       934	-0.00951029	0.00337448	0.00369660	-0.00177943	
       935	0.00530720	-0.00081307	0.01046111	-0.00371214	
       936	0.01980256	-0.00242366	0.00949475	0.00047541	
       937	0.00691779	-0.00016883	0.01013899	-0.00145731	
       938	0.00498508	-0.03205863	0.00659567	0.00079753	
       939	0.00562932	-0.03560194	0.00852839	-0.00177943	
       940	0.00756203	-0.02078446	0.00627356	-0.00016883	
       941	0.00305236	0.01174958	0.00466296	0.00047541	
       942	-0.00500062	0.04460575	-0.00145731	0.00079753	
       943	-0.00596698	0.02366799	-0.00306790	-0.00177943	
       944	-0.00274578	0.00788415	-0.00467850	-0.00403426	
       945	-0.00113519	0.00240812	-0.00693333	-0.00145731	
       946	-0.00145731	0.00047541	-0.01015453	0.00176389	
       947	-0.00435638	0.00562932	-0.01144300	-0.00081307	
       948	-0.00822181	0.00595144	-0.01369784	0.00337448	
       949	0.01819197	0.00466296	-0.00983241	-0.00081307	
       950	0.01174958	-0.00274578	-0.01047664	0.00176389	
       951	-0.00274578	-0.00918817	-0.00596698	0.00111965	
       952	0.00176389	-0.00983241	-0.00403426	-0.00113519	
       953	0.00337448	-0.01047664	0.00079753	-0.00693333	
       954	0.00885051	-0.01563055	0.00240812	-0.00596698	
       955	0.00111965	-0.01917386	0.00788415	-0.00210154	
       956	-0.00757757	-0.01079876	0.00820627	0.00111965	
       957	-0.00854393	0.00273024	0.00981687	-0.00016883	
       958	-0.01112088	0.02205740	0.01174958	-0.00532274	
       959	-0.00435638	0.01174958	0.00981687	-0.00886605	
       960	-0.00918817	0.01046111	0.00756203	-0.00596698	
       961	-0.00403426	0.00885051	0.00756203	-0.00274578	
       962	-0.00306790	0.01110534	0.00691779	0.00047541	
       963	-0.00177943	0.01110534	-0.00177943	0.00144177	
       964	-0.00532274	0.01432654	-0.00145731	0.00240812	
       965	-0.00274578	0.00885051	-0.00467850	0.00144177	
       966	0.00111965	-0.00532274	-0.00564486	0.00111965	
       967	0.00208601	-0.01756327	-0.00983241	0.00208601	
       968	0.00015329	-0.01691903	-0.01208724	-0.00403426	
       969	0.00015329	-0.01563055	-0.01015453	-0.00113519	
       970	0.00079753	-0.01498631	-0.01015453	0.00047541	
       971	0.00208601	-0.01659691	-0.00500062	0.00659567	
       972	-0.00210154	-0.01144300	-0.00467850	0.00820627	
       973	-0.01079876	0.00595144	-0.00081307	0.00273024	
       974	-0.01079876	0.00530720	0.00111965	-0.00596698	
       975	-0.02046234	0.00047541	0.00691779	-0.00339002	
       976	-0.03109228	0.03204310	0.00820627	-0.00467850	
       977	-0.01724115	0.05974535	0.00949475	-0.00049095	
       978	-0.00145731	0.02334588	0.00723991	-0.00145731	
       979	0.01851409	-0.00403426	0.00337448	-0.00113519	
       980	0.01786985	-0.00145731	0.00756203	-0.00145731	
       981	0.01400442	0.00466296	0.00498508	-0.00467850	
       982	0.00305236	0.00562932	0.00273024	0.00079753	
       983	0.00337448	0.00691779	-0.00403426	0.00852839	
       984	-0.00016883	0.00337448	-0.00532274	0.00530720	
       985	-0.01015453	-0.01047664	-0.00886605	-0.00016883	
       986	-0.03044804	-0.00274578	-0.00822181	0.00079753	
       987	-0.00983241	0.00885051	-0.01176512	0.00434084	
       988	0.01142746	0.01593713	-0.00757757	0.00788415	
       989	0.01239382	0.00852839	-0.00789969	0.00691779	
       990	0.01625925	-0.00145731	-0.00628909	0.00111965	
       991	0.01980256	-0.00403426	-0.00467850	0.00305236	
       992	0.02399011	-0.00049095	-0.00113519	0.00337448	
       993	0.02173528	0.00047541	0.00337448	-0.00274578	
       994	0.02044680	-0.00081307	0.00466296	0.00015329	
       995	0.01013899	0.00047541	0.00788415	-0.00113519	
       996	0.00595144	-0.00403426	0.01078323	-0.00145731	
       997	0.00981687	-0.00371214	0.00917263	-0.00371214	
       998	0.00047541	-0.00467850	0.00723991	-0.00822181	
       999	-0.00049095	-0.00435638	0.00498508	-0.00628909	
      1000	-0.00339002	-0.00596698	0.00756203	-0.00435638	
      1001	-0.00532274	-0.00596698	0.00691779	-0.00403426	
      1002	-0.00983241	-0.00467850	0.00144177	-0.00822181	
      1003	-0.00854393	-0.00757757	-0.00500062	-0.00951029	
      1004	-0.00886605	-0.00210154	-0.00725545	-0.00628909	
      1005	-0.00242366	-0.00757757	-0.00789969	0.00240812	
      1006	-0.00628909	-0.00886605	-0.01112088	0.00498508	
      1007	-0.00339002	-0.00725545	-0.01144300	0.00144177	
      1008	-0.00403426	-0.00628909	-0.00951029	0.00659567	
      1009	-0.00628909	-0.00467850	-0.00951029	0.00273024	
      1010	-0.00242366	-0.00918817	-0.00822181	0.00466296	
      1011	-0.00951029	-0.01401996	-0.00693333	0.00917263	
      1012	-0.01176512	-0.01563055	-0.00274578	0.01400442	
      1013	-0.00661121	-0.01434208	0.00111965	0.00917263	
      1014	-0.00435638	-0.02175082	0.00369660	0.01368230	
      1015	-0.00951029	-0.01369784	0.00595144	0.00820627	
      1016	-0.01498631	0.00144177	0.00981687	0.00273024	
      1017	-0.01112088	0.01754773	0.01110534	-0.00339002	
      1018	-0.01273148	0.00723991	0.00756203	-0.00016883	
      1019	-0.01305360	0.00756203	0.00820627	-0.00306790	
      1020	-0.00049095	0.01432654	0.00981687	-0.00339002	
      1021	0.01400442	0.02817766	0.00756203	-0.00918817	
      1022	0.01561501	0.01303806	0.00144177	-0.00757757	
      1023	0.00788415	0.00788415	-0.00145731	-0.00371214	
      1024	0.00305236	0.00434084	-0.00500062	-0.00210154	
      1025	0.00079753	-0.00113519	-0.00725545	0.00240812	
      1026	-0.00274578	0.00079753	-0.00886605	0.00273024	
      1027	-0.00596698	0.00079753	-0.01079876	-0.00371214	
      1028	-0.00145731	-0.00016883	-0.00983241	-0.00210154	
      1029	-0.00081307	-0.00016883	-0.00951029	-0.00016883	
      1030	-0.00371214	0.00659567	-0.00822181	0.00240812	
      1031	-0.00435638	0.00852839	-0.00500062	0.00176389	
      1032	-0.00242366	0.00788415	-0.00016883	0.00144177	
      1033	-0.00628909	0.00434084	0.00240812	-0.00274578	
      1034	-0.00661121	0.00562932	0.00595144	0.00111965	
      1035	0.00240812	0.00240812	0.00949475	0.00176389	
      1036	0.00691779	-0.00596698	0.00917263	-0.00403426	
      1037	0.00659567	-0.01273148	0.01174958	-0.00274578	
      1038	-0.00016883	-0.01273148	0.00788415	-0.00403426	
      1039	-0.00500062	-0.00789969	0.00949475	0.00015329	
      1040	-0.00467850	-0.00983241	0.00917263	0.00208601	
      1041	0.01174958	-0.00564486	0.00659567	0.00047541	
      1042	-0.00210154	0.00015329	0.00240812	-0.00049095	
      1043	-0.00403426	-0.00274578	-0.00306790	-0.00661121	
      1044	-0.01401996	-0.02400565	0.02237952	0.03107674	
      1045	0.00885051	-0.00951029	-0.00886605	-0.00467850	
      1046	0.00659567	-0.00500062	-0.01530843	-0.00081307	
      1047	0.00788415	-0.00596698	-0.01337572	-0.00242366	
      1048	0.01174958	-0.00467850	-0.01144300	-0.00210154	
      1049	0.01336018	-0.00822181	-0.01369784	0.00144177	
      1050	0.00788415	-0.00822181	-0.00918817	0.00208601	
      1051	0.01110534	-0.01659691	-0.00693333	0.00369660	
      1052	-0.01176512	-0.01240936	-0.00339002	0.00015329	
      1053	-0.00693333	-0.01337572	0.00079753	-0.00274578	
      1054	-0.00435638	0.00176389	0.00627356	-0.00306790	
      1055	0.00015329	0.02141316	0.00723991	0.00015329	
      1056	0.00305236	0.01207170	0.01271594	0.00337448	
      1057	-0.00210154	0.01561501	0.01013899	0.00144177	
      1058	-0.00339002	0.03204310	0.01207170	0.00337448	
      1059	-0.00016883	0.04170667	0.00852839	-0.00016883	
      1060	-0.00467850	0.02527859	0.00885051	0.00208601	
      1061	-0.01401996	0.00047541	0.00949475	0.00562932	
      1062	-0.02690473	-0.01305360	0.00401872	0.00820627	
      1063	-0.02336141	-0.03399135	-0.00210154	0.00820627	
      1064	-0.01659691	-0.04590976	-0.00145731	0.00401872	
      1065	-0.01466419	-0.02303929	-0.00886605	-0.00725545	
      1066	-0.00725545	-0.01949598	-0.01240936	-0.01369784	
      1067	-0.00532274	0.01174958	-0.01112088	-0.00532274	
      1068	-0.01015453	0.04331727	-0.01176512	0.00240812	
      1069	-0.00339002	0.03043250	-0.01047664	0.00756203	
      1070	-0.00306790	0.02141316	-0.00693333	0.00723991	
      1071	-0.00242366	0.01561501	-0.00693333	-0.00016883	
      1072	-0.00242366	0.00627356	-0.00500062	-0.00210154	
      1073	-0.00016883	0.00337448	-0.00016883	-0.00661121	
      1074	-0.00306790	0.00595144	0.00401872	-0.00177943	
      1075	0.00273024	0.00659567	0.00434084	-0.00274578	
      1076	0.00885051	-0.00242366	0.00723991	-0.00467850	
      1077	0.01497078	0.00627356	0.00756203	-0.00435638	
      1078	0.01046111	-0.01015453	0.00917263	-0.00306790	
      1079	0.01271594	-0.01659691	0.01013899	-0.00016883	
      1080	0.01336018	-0.00274578	0.01013899	0.00079753	
      1081	0.01561501	-0.00886605	0.00305236	0.00917263	
      1082	0.02109104	-0.01079876	0.00079753	0.00369660	
      1083	0.01819197	-0.00661121	-0.00081307	0.00240812	
      1084	0.00530720	-0.00886605	-0.00210154	-0.00081307	
      1085	0.00595144	0.00401872	-0.00500062	-0.00532274	
      1086	0.00820627	0.00337448	-0.00757757	-0.00145731	
      1087	0.01368230	-0.00725545	-0.01240936	-0.00113519	
      1088	-0.00951029	-0.00177943	-0.01015453	0.00176389	
      1089	-0.02593837	0.00337448	-0.00822181	0.00369660	
      1090	-0.00628909	0.00756203	-0.00951029	0.00562932	
      1091	-0.00596698	0.00981687	-0.00693333	0.01142746	
      1092	0.02270164	-0.00145731	-0.00371214	0.01303806	
      1093	0.01593713	-0.00016883	0.00305236	-0.00145731	
      1094	0.01754773	0.01110534	0.00369660	-0.00564486	
      1095	0.00434084	0.01980256	0.00530720	-0.00532274	
      1096	-0.00339002	0.00079753	0.00723991	-0.00854393	
      1097	-0.01208724	0.01497078	0.01271594	-0.01112088	
      1098	-0.01305360	0.00369660	0.01078323	-0.00757757	
      1099	-0.01724115	-0.00306790	0.00627356	-0.01112088	
      1100	-0.02110658	0.00659567	0.00627356	-0.01208724	
      1101	-0.01659691	0.01110534	0.00337448	-0.00371214	
      1102	-0.01563055	0.01754773	-0.00049095	0.00208601	
      1103	-0.00854393	0.01013899	-0.00081307	0.00885051	
      1104	-0.01112088	-0.00242366	-0.00306790	0.01013899	
      1105	-0.00951029	0.00530720	-0.00789969	0.01336018	
      1106	0.01593713	0.00079753	-0.00918817	0.01078323	
      1107	0.02334588	-0.00306790	-0.00789969	0.00595144	
      1108	0.01046111	-0.00145731	-0.00628909	0.00401872	
      1109	0.00369660	-0.01369784	-0.00822181	0.00144177	
      1110	0.00595144	-0.02626049	-0.00725545	0.00337448	
      1111	0.00756203	-0.01047664	-0.00371214	-0.00081307	
      1112	-0.00371214	-0.00757757	-0.00177943	-0.00403426	
      1113	-0.01401996	-0.00693333	0.00208601	-0.00371214	
      1114	-0.00145731	-0.00210154	0.00369660	-0.00532274	
      1115	0.00079753	0.00015329	0.00401872	-0.00113519	
      1116	-0.00596698	0.00498508	0.01078323	-0.00435638	
      1117	0.00015329	0.00595144	0.01013899	-0.00661121	
      1118	-0.00467850	0.00273024	0.01046111	-0.00661121	
      1119	-0.00951029	0.00079753	0.00949475	0.00015329	
      1120	-0.00403426	-0.00500062	0.01046111	0.00337448	
      1121	0.00111965	-0.02110658	0.00788415	0.00305236	
      1122	0.00595144	-0.02690473	0.00434084	-0.00177943	
      1123	-0.00177943	-0.01498631	-0.00177943	-0.00371214	
      1125	0.00434084	-0.01176512	-0.00403426	-0.00177943	
      1125	-0.00081307	-0.00918817	-0.00596698	-0.00145731	
      1126	-0.00306790	-0.00725545	-0.00918817	0.00079753	
      1127	-0.00339002	-0.00339002	-0.00725545	0.00273024	
      1128	-0.00210154	-0.00242366	-0.00757757	0.00047541	
      1129	-0.00403426	-0.00274578	-0.01015453	-0.00371214	
      1130	0.00015329	-0.01724115	-0.00500062	0.00111965	
      1131	0.00401872	-0.01756327	-0.00693333	-0.00177943	
      1133	0.00434084	-0.01563055	-0.00371214	0.00562932	
      1134	0.01368230	-0.01949598	-0.00049095	0.00111965	
      1135	0.01046111	-0.02271718	0.00434084	-0.00339002	
      1136	0.00498508	-0.01530843	0.00659567	-0.00306790	
      1137	-0.00886605	0.02366799	0.00981687	-0.00177943	
      1138	-0.00886605	0.03333157	0.00820627	-0.00274578	
      1139	-0.00242366	0.00788415	0.00756203	-0.00532274	
      1140	0.00079753	0.00144177	0.00466296	-0.00725545	
      1141	0.00240812	0.01239382	0.00691779	-0.00177943	
      1142	0.00434084	0.01400442	0.00111965	-0.00177943	
      1143	0.00885051	0.00659567	-0.00210154	-0.00403426	
      1144	0.01239382	-0.00016883	-0.00049095	-0.00306790	
      1145	0.02463435	0.01980256	-0.00435638	0.00111965	
      1146	0.03011038	0.00917263	-0.00661121	-0.00274578	
      1147	0.02431223	0.00240812	-0.01047664	-0.00145731	
      1148	0.00691779	0.00240812	-0.01305360	0.00498508	
      1149	-0.02014022	0.01046111	-0.00757757	0.00659567	
      1150	-0.04043373	-0.00822181	-0.00628909	0.00530720	
      1151	-0.06878022	-0.00081307	-0.00596698	0.00917263	
      1152	-0.04913095	0.01013899	-0.00532274	0.00337448	
      1153	-0.01047664	0.00627356	-0.00177943	0.00111965	
      1154	-0.03753466	0.00305236	0.00530720	0.00401872	
      1155	-0.03592406	0.00981687	0.00756203	0.00627356	
      1156	-0.00242366	0.00595144	0.00530720	0.00466296	
      1157	-0.00081307	0.00723991	0.01013899	-0.00145731	
      1158	0.00144177	0.00788415	0.00852839	-0.00693333	
      1159	0.00562932	0.01593713	0.00627356	-0.00951029	
      1160	0.00562932	0.02495647	0.00756203	-0.00242366	
      1161	0.00949475	0.00852839	0.00530720	0.00337448	
      1162	0.01110534	-0.00854393	0.00369660	-0.00371214	
      1163	0.00723991	-0.02078446	0.00305236	-0.00532274	
      1164	0.00498508	-0.01917386	-0.00016883	0.00015329	
      1165	0.00305236	-0.01401996	-0.00757757	0.00498508	
      1166	0.00756203	-0.00822181	-0.00596698	0.00659567	
      1167	0.00659567	-0.00177943	-0.01112088	-0.00145731	
      1168	0.00401872	-0.00177943	-0.01240936	0.00015329	
      1169	0.00305236	-0.00274578	-0.00789969	0.00240812	
      1170	0.00595144	-0.00693333	-0.01273148	0.00305236	
      1171	0.00337448	-0.00081307	-0.00854393	0.00434084	
      1172	0.01432654	0.00659567	-0.00757757	0.00047541	
      1173	0.02237952	-0.00113519	-0.00661121	-0.00274578	
      1174	0.00949475	-0.00532274	0.00144177	-0.00532274	
      1175	0.00949475	0.00466296	0.00562932	-0.00725545	
      1176	0.01336018	0.01690349	0.01078323	-0.00983241	
      1177	0.00273024	0.00627356	0.00981687	-0.00500062	
      1178	0.00305236	0.00498508	0.01046111	-0.00339002	
      1179	0.00595144	-0.01949598	0.01110534	-0.00177943	
      1180	0.00562932	-0.02303929	0.00949475	-0.00403426	
      1181	0.00015329	-0.01047664	0.00885051	0.00047541	
      1182	-0.00467850	-0.00306790	0.00723991	-0.00242366	
      1183	-0.00339002	-0.00145731	0.00176389	-0.00210154	
      1184	0.00691779	-0.00081307	-0.00210154	-0.00145731	
      1185	0.00885051	0.01464866	-0.00403426	-0.00306790	
      1186	0.00788415	0.00691779	-0.00725545	-0.00306790	
      1187	-0.00210154	-0.00306790	-0.01176512	-0.00177943	
      1188	0.00208601	-0.01273148	-0.01273148	-0.00113519	
      1189	0.00079753	-0.02271718	-0.01305360	0.00401872	
      1190	-0.00983241	-0.01595267	-0.01079876	0.00015329	
      1191	-0.02400565	-0.01788539	-0.00918817	-0.00306790	
      1192	-0.02722684	-0.02175082	-0.00693333	0.00111965	
      1193	-0.01788539	-0.00016883	-0.00306790	0.00498508	
      1194	-0.01563055	-0.00951029	0.00401872	0.00079753	
      1195	-0.03012592	-0.00081307	0.00627356	0.00176389	
      1196	-0.02014022	0.03880760	0.00627356	-0.00274578	
      1197	-0.01434208	0.04428363	0.01046111	0.00144177	
      1198	-0.02207294	0.04492787	0.01400442	0.00337448	
      1199	0.02753343	0.03848548	0.01400442	0.00273024	
      1200	0.04686058	0.03204310	0.01271594	0.00273024	
      1201	0.04170667	0.03784124	0.00949475	-0.00113519	
      1202	0.03397581	0.02076892	0.00981687	0.00047541	
      1203	0.02237952	0.00820627	0.00595144	-0.00274578	
      1204	0.01271594	-0.00113519	0.00144177	-0.00371214	
      1205	0.01110534	-0.01144300	-0.00242366	-0.00177943	
      1206	0.01303806	-0.02722684	-0.00435638	0.00595144	
      1207	0.01529289	-0.02142870	-0.01208724	0.00820627	
      1208	0.01046111	-0.01949598	-0.00918817	0.00723991	
      1209	0.00176389	-0.01112088	-0.01305360	0.00079753	
      1210	-0.00145731	-0.00145731	-0.01337572	-0.00210154	
      1211	0.00176389	0.00434084	-0.01079876	0.00434084	
      1212	0.00595144	0.01368230	-0.00886605	0.00305236	
      1213	0.01400442	-0.00177943	-0.00049095	-0.00210154	
      1214	0.01336018	0.00144177	0.00047541	-0.00886605	
      1215	0.00015329	-0.00725545	0.00369660	-0.00403426	
      1216	-0.01949598	-0.03431347	0.00466296	-0.00467850	
      1217	-0.03463559	-0.02142870	0.00627356	-0.00306790	
      1218	-0.03173651	-0.00822181	0.00723991	-0.00016883	
      1219	-0.03205863	-0.01176512	0.00820627	-0.00467850	
      1220	-0.03399135	-0.03882314	0.00788415	-0.00403426	
      1221	-0.01756327	-0.02432777	0.00756203	-0.00564486	
      1222	-0.00854393	0.05330297	0.00595144	-0.00113519	
      1223	-0.00661121	0.05749052	0.00079753	0.00047541	
      1224	-0.01981810	0.04074032	0.00273024	0.00498508	
      1225	-0.02851532	0.05201449	-0.00306790	0.00723991	
      1226	-0.03173651	0.03300945	-0.00725545	0.00240812	
      1227	-0.01208724	0.01336018	-0.01401996	0.00627356	
      1228	-0.00628909	0.00659567	-0.00983241	0.00369660	
      1229	-0.00049095	0.00305236	-0.01015453	0.00337448	
      1230	0.00562932	-0.01208724	-0.01047664	0.00562932	
      1231	0.02334588	-0.02110658	-0.01079876	0.00240812	
      1232	0.02463435	-0.01917386	-0.00628909	-0.00113519	
      1233	0.02302376	-0.00532274	-0.00306790	-0.00049095	
      1234	0.01625925	-0.01273148	-0.00049095	0.00047541	
      1235	0.01110534	-0.01240936	0.00208601	0.00079753	
      1236	0.00595144	-0.01240936	0.00176389	-0.00500062	
      1237	-0.01595267	-0.00757757	0.00659567	-0.00435638	
      1238	-0.01691903	-0.00693333	0.00885051	-0.00242366	
      1239	-0.00339002	-0.00306790	0.00756203	-0.00822181	
      1240	-0.02078446	-0.01240936	0.00627356	-0.00822181	
      1241	-0.02110658	-0.01176512	0.00562932	-0.00306790	
      1242	-0.00371214	-0.01112088	0.00337448	-0.00016883	
      1243	0.00337448	-0.01434208	0.00047541	0.00240812	
      1244	0.00369660	-0.01047664	-0.00339002	-0.00145731	
      1245	0.00659567	-0.01563055	-0.00210154	-0.00564486	
      1246	0.00595144	-0.01208724	-0.00757757	-0.00918817	
      1247	0.01400442	-0.01434208	-0.01530843	-0.00918817	
      1248	0.01690349	-0.01305360	-0.01176512	-0.00210154	
      1249	0.01786985	-0.01144300	-0.01337572	-0.00306790	
      1250	0.01851409	-0.01434208	-0.01208724	0.00466296	
      1251	0.01271594	-0.01015453	-0.00789969	0.00723991	
      1252	-0.00435638	0.00079753	-0.00628909	0.00691779	
      1253	-0.00532274	0.00240812	-0.00049095	0.00208601	
      1254	-0.01981810	0.00659567	0.00015329	0.00273024	
      1255	-0.02593837	0.01174958	0.00337448	0.00176389	
      1256	-0.00339002	0.01400442	0.00852839	0.00240812	
      1257	-0.00145731	0.00498508	0.01046111	0.00176389	
      1258	0.00047541	-0.00210154	0.00981687	0.00015329	
      1259	0.00466296	-0.00564486	0.00949475	-0.00757757	
      1260	0.00723991	-0.00822181	0.00723991	-0.00983241	
      1261	0.00047541	-0.00854393	0.00691779	-0.00306790	
      1262	-0.00210154	-0.00242366	0.00176389	-0.00081307	
      1263	0.00079753	-0.00145731	0.00111965	0.00401872	
      1264	0.00756203	0.00434084	-0.00049095	-0.00016883	
      1265	0.00079753	0.00788415	-0.00403426	-0.00016883	
      1266	-0.00564486	0.00369660	-0.00532274	0.00562932	
      1267	0.02012468	0.01110534	-0.00596698	0.00434084	
      1268	0.01851409	0.00498508	-0.00951029	0.00466296	
      1269	0.00885051	0.00595144	-0.00983241	0.00562932	
      1270	-0.00274578	0.00723991	-0.00661121	0.00369660	
      1271	-0.01112088	0.00691779	-0.00822181	0.00047541	
      1272	-0.00789969	0.00337448	-0.00467850	0.00047541	
      1273	-0.00113519	0.00434084	-0.00306790	0.00111965	
      1274	-0.00661121	0.00369660	0.00144177	-0.00532274	
      1275	-0.00339002	0.00885051	0.00530720	-0.00532274	
      1276	0.00079753	0.01046111	0.01078323	-0.00016883	
      1277	0.00208601	0.00691779	0.00852839	-0.00274578	
      1278	0.00305236	0.00208601	0.01271594	-0.00500062	
      1279	0.00369660	-0.00049095	0.01271594	-0.00242366	
      1280	-0.00016883	-0.00242366	0.00820627	-0.00210154	
      1280	-0.00081307	-0.00242366	0.00659567	-0.00242366	
      1281	-0.01112088	-0.00274578	0.00466296	0.00079753	
      1282	-0.01563055	-0.00242366	-0.00049095	0.00337448	
      1283	-0.00467850	-0.00564486	-0.00113519	0.00659567	
      1284	-0.00661121	-0.00435638	-0.00339002	0.00401872	
      1285	-0.00435638	-0.00242366	-0.00725545	0.00240812	
      1286	-0.00016883	-0.00049095	-0.01240936	-0.00210154	
      1287	-0.00435638	-0.00339002	-0.01208724	-0.00081307	
      1288	0.00079753	0.00111965	-0.01112088	-0.00113519	
      1289	0.00917263	0.00208601	-0.01337572	0.00111965	
      1290	0.00691779	0.00047541	-0.01240936	0.00434084	
      1291	0.01078323	-0.00467850	-0.00886605	-0.00113519	
      1292	0.02012468	-0.01079876	-0.00274578	-0.00467850	
      1293	0.00820627	-0.00016883	0.00305236	-0.00951029	
      1294	-0.01208724	0.00756203	0.00659567	-0.00500062	
      1295	-0.01820751	0.00852839	0.01078323	-0.00628909	
      1296	-0.01176512	-0.00242366	0.01013899	-0.00049095	
      1297	0.00111965	-0.01788539	0.00885051	0.00111965	
      1298	0.00434084	-0.01047664	0.00852839	0.00111965	
      1299	-0.00532274	0.00047541	0.00852839	0.00240812	
      1300	-0.00854393	0.01786985	0.00981687	-0.00049095	
      1301	-0.00951029	-0.00596698	0.00498508	-0.00145731	
      1302	-0.01369784	-0.01112088	0.00208601	-0.00210154	
      1303	-0.01337572	0.00369660	-0.00145731	0.00756203	
      1304	-0.01176512	0.00208601	-0.00628909	0.01174958	
      1305	0.00144177	0.00562932	-0.01240936	0.00273024	
      1306	0.00144177	-0.00918817	-0.01144300	0.00144177	
      1307	-0.00306790	-0.00049095	-0.01305360	0.00240812	
      1308	-0.00403426	0.03784124	-0.01015453	0.00562932	
      1309	0.02141316	0.01110534	-0.01401996	0.00144177	
      1310	0.03945184	-0.00596698	-0.01047664	-0.00081307	
      1311	0.01722561	-0.00435638	-0.00789969	0.00047541	
      1312	-0.00049095	0.00981687	0.00015329	0.00079753	
      1313	-0.00081307	0.02849978	0.00144177	-0.00210154	
      1314	0.00852839	0.01722561	0.00337448	-0.00177943	
      1315	0.00885051	0.01625925	0.00691779	-0.00339002	
      1316	0.01271594	0.01368230	0.00691779	-0.00274578	
      1317	0.00273024	0.01464866	0.00691779	-0.00339002	
      1318	-0.00177943	0.00917263	0.00949475	-0.00628909	
      1319	-0.00242366	0.00981687	0.00723991	-0.00918817	
      1320	-0.00918817	0.00369660	0.00788415	-0.00532274	
      1321	-0.01691903	-0.00918817	0.00820627	-0.00274578	
      1322	-0.02658261	-0.02787108	0.00015329	0.00240812	
      1323	0.00079753	-0.01563055	-0.00113519	0.00079753	
      1324	0.01303806	0.00530720	-0.00145731	-0.00145731	
      1325	-0.04333281	-0.00500062	-0.00822181	0.00208601	
      1326	-0.02175082	0.00144177	-0.00693333	0.00369660	
      1327	-0.01530843	0.00530720	-0.00886605	0.00595144	
      1328	-0.00145731	-0.00210154	-0.01176512	0.01013899	
      1329	-0.00016883	-0.01401996	-0.01015453	0.00530720	
      1330	0.01207170	-0.01949598	-0.01079876	0.00401872	
      1331	0.01980256	-0.02078446	-0.00789969	-0.00081307	
      1332	0.01078323	-0.02497201	-0.00274578	-0.00242366	
      1333	0.00305236	-0.02658261	-0.00371214	0.00240812	
      1334	0.00273024	-0.02529413	0.00369660	-0.00081307	
      1335	0.01013899	-0.02207294	0.00562932	-0.00242366	
      1336	0.00981687	-0.02883744	0.00756203	-0.00339002	
      1337	0.00788415	-0.01627479	0.01013899	-0.00177943	
      1338	-0.00596698	0.00627356	0.01239382	-0.00113519	
      1339	-0.01466419	-0.00693333	0.01046111	-0.00049095	
      1340	-0.00081307	-0.02626049	0.00885051	-0.00081307	
      1341	0.01207170	-0.02239506	0.01078323	-0.00177943	
      1342	0.00498508	-0.01305360	0.00337448	-0.00210154	
      1343	0.00111965	0.00852839	0.00047541	-0.00145731	
      1344	-0.00467850	0.02817766	-0.00177943	-0.00049095	
      1345	-0.00467850	0.03172098	-0.00757757	-0.00403426	
      1346	-0.00210154	0.04009608	-0.00854393	-0.00371214	
      1347	-0.00145731	0.05749052	-0.01208724	-0.00049095	
      1348	0.00176389	0.03075462	-0.01305360	0.00015329	
      1349	0.00788415	0.01658137	-0.01015453	0.00144177	
      1350	0.00627356	0.01368230	-0.00822181	0.00047541	
      1351	0.00595144	-0.00242366	-0.00854393	-0.00145731	
      1352	-0.00274578	0.00401872	-0.00145731	-0.00081307	
      1353	-0.00661121	0.01078323	0.00144177	-0.00564486	
      1354	-0.01273148	0.00820627	0.00273024	-0.00435638	
      1355	-0.00628909	0.00659567	0.00530720	0.00015329	
      1356	-0.00435638	0.00820627	0.00885051	-0.00113519	
      1357	-0.00951029	0.00788415	0.00981687	0.00111965	
      1358	-0.00789969	0.00369660	0.01078323	0.00273024	
      1359	-0.00177943	-0.00500062	0.00820627	-0.00081307	
      1360	0.00144177	-0.00789969	0.00723991	-0.00177943	
      1361	-0.00049095	-0.01208724	0.00756203	0.00079753	
      1362	0.00337448	-0.02239506	0.00273024	0.00401872	
      1363	0.01142746	-0.03012592	0.00047541	0.00369660	
      1364	0.01400442	-0.01852963	-0.00113519	0.00434084	
      1365	0.01303806	-0.00789969	-0.00789969	0.00273024	
      1366	0.01078323	-0.00951029	-0.00983241	-0.00049095	
      1367	0.01303806	-0.01691903	-0.00983241	-0.00113519	
      1368	-0.01401996	-0.00081307	-0.00983241	0.00240812	
      1369	-0.03077016	0.00466296	-0.01015453	0.00144177	
      1370	-0.03689042	0.00595144	-0.00983241	0.00305236	
      1371	-0.02883744	-0.00113519	-0.00757757	0.00949475	
      1372	-0.03656830	0.00015329	-0.00371214	0.00691779	
      1373	-0.03785678	-0.00049095	0.00369660	0.00562932	
      1374	-0.00371214	-0.00016883	0.00208601	-0.00435638	
      1375	0.02753343	0.00981687	0.00401872	-0.00532274	
      1376	0.03043250	0.00981687	0.00885051	-0.00757757	
      1377	0.03236521	0.00466296	0.00756203	-0.00016883	
      1378	0.02173528	0.00240812	0.01207170	0.00337448	
      1379	0.01207170	0.00949475	0.00691779	-0.00177943	
      1380	0.01239382	0.00885051	0.00756203	-0.00210154	
      1381	0.01336018	-0.01756327	0.00337448	-0.00177943	
      1382	0.01110534	-0.03721254	0.00208601	-0.00016883	
      1383	0.01400442	-0.03624618	-0.00242366	0.00144177	
      1384	0.00498508	-0.01981810	-0.00661121	0.00562932	
      1385	-0.00306790	-0.01112088	-0.00822181	0.00401872	
      1386	-0.01144300	0.01625925	-0.00628909	0.00466296	
      1387	-0.02110658	0.02237952	-0.01144300	0.00111965	
      1388	-0.00693333	0.00079753	-0.00918817	0.00401872	
      1389	0.00047541	-0.01240936	-0.00918817	0.00337448	
      1390	-0.00500062	-0.00757757	-0.00628909	0.00144177	
      1391	-0.00371214	0.00498508	-0.00467850	-0.00049095	
      1392	-0.00081307	-0.00145731	-0.00306790	-0.00113519	
      1393	0.00369660	0.00627356	0.00240812	-0.00757757	
      1394	0.00627356	0.04460575	0.00530720	-0.00596698	
      1395	0.00627356	0.03172098	0.00788415	-0.00467850	
      1396	0.00562932	0.00498508	0.00981687	-0.00339002	
      1397	0.00305236	-0.00725545	0.00885051	-0.00274578	
      1398	-0.00693333	-0.00757757	0.00595144	-0.00403426	
      1399	-0.00789969	-0.00886605	0.00723991	-0.00306790	
      1400	-0.00661121	-0.02175082	0.00498508	-0.00467850	
      1401	-0.00564486	-0.01208724	0.00176389	-0.00339002	
      1402	-0.00854393	0.00659567	-0.00016883	-0.00177943	
      1403	-0.01530843	0.01561501	-0.00113519	0.00659567	
      1404	-0.02046234	0.02205740	-0.00596698	0.00852839	
      1405	0.00659567	0.00788415	-0.00661121	0.00111965	
      1406	0.01336018	0.00885051	-0.00918817	-0.00177943	
      1407	0.00305236	0.01400442	-0.00789969	-0.00113519	
      1408	-0.00210154	0.01110534	-0.01240936	0.00144177	
      1409	-0.00339002	0.01078323	-0.01079876	0.00401872	
      1410	0.00498508	-0.00242366	-0.00951029	0.00111965	
      1411	0.00337448	-0.01144300	-0.00500062	0.00852839	
      1412	-0.00242366	-0.00532274	0.00144177	0.00047541	
      1413	-0.00757757	-0.01466419	0.00240812	-0.00371214	
      1414	-0.00757757	-0.00757757	0.00401872	-0.00049095	
      1415	-0.00274578	0.00015329	0.00756203	-0.00113519	
      1416	-0.00757757	0.00466296	0.01142746	-0.00016883	
      1417	0.01529289	0.01980256	0.01142746	0.00079753	
      1418	0.01303806	0.02044680	0.01239382	-0.00177943	
      1419	0.01174958	0.00434084	0.00820627	-0.00242366	
      1420	0.01625925	0.00305236	0.00852839	-0.00049095	
      1421	0.01174958	-0.00049095	0.00466296	0.00144177	
      1422	0.00917263	-0.00339002	0.00305236	-0.00339002	
      1423	0.01207170	-0.00628909	-0.00274578	0.00111965	
      1424	0.00434084	-0.01079876	-0.00693333	-0.00016883	
      1425	-0.00339002	-0.00983241	-0.00789969	-0.00435638	
      1426	0.00595144	-0.00435638	-0.00983241	-0.00435638	
      1427	0.01142746	-0.00886605	-0.01208724	-0.00145731	
      1428	0.00434084	-0.00757757	-0.01273148	0.00144177	
      1429	-0.00435638	-0.00467850	-0.01079876	0.00111965	
      1430	0.00015329	-0.00822181	-0.01015453	0.00240812	
      1431	0.01690349	-0.01305360	-0.00822181	0.00273024	
      1432	0.01271594	-0.01756327	-0.00564486	0.00305236	
      1433	0.00885051	-0.02754896	-0.00242366	0.00498508	
      1434	0.00723991	-0.02432777	0.00240812	0.00047541	
      1435	0.00885051	-0.02658261	0.01046111	0.00434084	
      1436	-0.01112088	0.00369660	0.01046111	-0.00145731	
      1437	-0.01176512	0.02173528	0.01690349	0.00917263	
      1438	-0.00532274	0.01400442	0.01271594	0.00434084	
      1439	-0.02561625	0.01786985	0.01207170	-0.00177943	
      1440	-0.03527983	0.01400442	0.01110534	0.00015329	
      1441	-0.01756327	0.00434084	0.00530720	-0.00371214	
      1442	-0.01208724	0.00305236	0.00466296	-0.00177943	
      1443	-0.00854393	0.00562932	-0.00049095	0.00240812	
      1444	-0.00532274	0.00369660	-0.00596698	0.00530720	
      1445	-0.00789969	0.00208601	-0.00789969	-0.00113519	
      1446	-0.02046234	0.00659567	-0.00822181	-0.00016883	
      1447	-0.03012592	0.02044680	-0.00886605	-0.00339002	
      1448	-0.00628909	0.00981687	-0.01434208	-0.00081307	
      1449	0.00144177	0.00240812	-0.01047664	-0.00177943	
      1450	0.00079753	0.00337448	-0.01273148	0.00079753	
      1451	0.00466296	-0.00371214	-0.00854393	0.00273024	
      1452	0.00498508	0.00079753	-0.00403426	0.00466296	
      1453	-0.00500062	0.01271594	-0.00242366	0.00047541	
      1454	-0.00242366	-0.01788539	0.00015329	-0.00661121	
      1455	-0.00113519	-0.01981810	0.01013899	-0.00467850	
      1456	0.00079753	-0.04397704	0.00627356	-0.00210154	
      1457	0.00337448	-0.06523691	0.01174958	0.00208601	
      1458	0.00852839	-0.05750605	0.00756203	0.00273024	
      1459	0.00176389	-0.03978949	0.00949475	0.00305236	
      1460	0.00401872	-0.00210154	0.00562932	0.00305236	
      1461	0.00144177	0.05974535	0.00788415	-0.00177943	
      1462	0.00691779	0.07198588	0.00273024	0.00595144	
      1463	0.01271594	0.04589422	-0.00500062	0.00659567	
      1464	0.01013899	0.03333157	-0.00467850	-0.00016883	
      1465	-0.00339002	0.00981687	-0.00564486	-0.00306790	
      1466	-0.00693333	-0.00628909	-0.00339002	0.00047541	
      1467	-0.01240936	-0.00274578	-0.00918817	-0.00306790	
      1468	-0.00435638	0.00723991	-0.01079876	-0.00886605	
      1469	0.00337448	0.00337448	-0.00854393	-0.00274578	
      1470	0.00401872	-0.00403426	-0.00918817	0.00208601	
      1471	-0.00210154	-0.00145731	-0.00886605	0.00240812	
      1472	-0.00339002	0.02656707	-0.00467850	-0.00113519	
      1473	0.00401872	0.03526429	-0.00403426	-0.00403426	
      1474	0.00949475	-0.01015453	0.00111965	0.00273024	
      1475	0.00273024	-0.01563055	0.00788415	0.00917263	
      1476	-0.00145731	-0.00983241	0.00434084	0.00659567	
      1477	0.01400442	0.00369660	0.01110534	0.00434084	
      1478	0.03043250	0.01497078	0.01174958	0.00111965	
      1479	0.01851409	0.01658137	0.00981687	-0.00564486	
      1480	0.01400442	0.00723991	0.00820627	-0.00113519	
      1481	0.01142746	-0.00177943	0.00691779	-0.00435638	
      1482	-0.00016883	-0.00242366	0.00208601	-0.00371214	
      1483	-0.00274578	-0.00596698	-0.00177943	-0.00371214	
      1484	-0.02239506	0.00305236	-0.00371214	-0.00532274	
      1485	-0.01691903	-0.01144300	-0.00757757	-0.00145731	
      1486	0.01013899	-0.01756327	-0.00435638	-0.00339002	
      1487	0.01336018	-0.01691903	-0.00564486	-0.00210154	
      1488	0.00240812	-0.01047664	-0.00854393	-0.00532274	
      1489	0.02914402	-0.00339002	-0.00918817	-0.00016883	
      1490	0.01400442	-0.00757757	-0.01240936	0.00401872	
      1491	-0.00113519	-0.00757757	-0.00500062	0.00273024	
      1492	-0.00500062	-0.00596698	-0.00306790	0.00176389	
      1493	-0.01144300	-0.01144300	-0.00049095	0.00466296	
      1494	-0.01530843	-0.01112088	0.00144177	0.00981687	
      1495	-0.01176512	-0.00628909	0.00595144	0.00949475	
      1496	-0.01563055	-0.00113519	0.00723991	0.00144177	
      1497	-0.02400565	0.00111965	0.00820627	-0.00242366	
      1498	-0.02529413	-0.00467850	0.00691779	-0.00242366	
      1499	-0.02078446	0.00273024	0.00659567	-0.00274578	
      1500	-0.01337572	0.00434084	0.00788415	-0.00210154	
      1501	0.00337448	0.00562932	0.00401872	0.00337448	
      1502	0.01819197	0.01336018	0.00337448	0.00079753	
      1503	0.04428363	0.01658137	0.00047541	0.00208601	
      1504	0.04943754	0.00949475	-0.00306790	-0.00081307	
      1505	0.02721131	0.00176389	-0.00725545	-0.00145731	
      1506	0.00917263	-0.00725545	-0.01144300	0.00079753	
      1508	-0.01015453	-0.00918817	-0.01047664	0.00079753	
      1509	-0.01724115	-0.00757757	-0.01240936	0.00144177	
      1510	-0.00339002	-0.00532274	-0.01112088	0.00466296	
      1511	-0.01466419	-0.00306790	-0.00886605	0.00273024	
      1512	-0.03077016	-0.00371214	-0.00822181	-0.00113519	
      1513	-0.01498631	-0.00371214	-0.00403426	0.00079753	
      1514	-0.01434208	-0.00242366	0.00079753	-0.00306790	
      1515	-0.00693333	0.00015329	0.00466296	-0.00532274	
      1516	0.00015329	0.00466296	0.01303806	0.00176389	
      1517	-0.00983241	-0.00016883	0.00949475	-0.00371214	
      1518	0.00015329	-0.00403426	0.00756203	-0.00661121	
      1519	0.00176389	-0.00210154	0.00949475	-0.00789969	
      1520	0.01046111	0.00305236	0.00981687	-0.01079876	
      1521	0.01464866	-0.00177943	0.00401872	-0.00918817	
      1522	-0.00113519	-0.00339002	0.00337448	-0.00306790	
      1523	-0.00789969	-0.00274578	0.00047541	-0.00306790	
      1524	-0.01176512	0.00144177	-0.00081307	-0.00532274	
      1525	-0.00983241	0.00047541	-0.00435638	-0.00564486	
      1526	-0.01885174	-0.00081307	-0.00886605	-0.00306790	
      1527	-0.01724115	0.00144177	-0.00822181	0.01722561	
      1528	-0.00918817	0.00691779	-0.01176512	0.01497078	
      1529	-0.00145731	0.00659567	-0.01176512	0.01271594	
      1530	0.00498508	0.00273024	-0.00725545	0.01529289	
      1531	0.00949475	-0.00371214	-0.00951029	0.01464866	
      1532	0.00820627	-0.00532274	-0.00596698	0.01142746	
      1533	0.00530720	-0.01015453	-0.00210154	0.00691779	
      1534	0.01207170	-0.02336141	-0.00016883	0.00176389	
      1535	0.00079753	-0.00467850	0.00176389	0.00079753	
      1536	0.00369660	0.00498508	0.00885051	0.00079753	
      1537	-0.00210154	-0.01144300	0.01013899	-0.00532274	
      1538	-0.01015453	-0.00886605	0.00788415	-0.00371214	
      1539	-0.00596698	-0.00693333	0.01239382	-0.00725545	
      1540	-0.00435638	0.00337448	0.00949475	-0.00661121	
      1541	0.00305236	0.01239382	0.00691779	-0.00177943	
      1542	0.01142746	-0.00177943	0.00466296	-0.00306790	
      1543	-0.00049095	-0.03592406	-0.03399135	0.01915833	
      1544	0.01400442	-0.00983241	-0.00049095	0.00111965	
      1545	0.01013899	0.00627356	-0.00532274	0.00079753	
      1546	0.00111965	0.01207170	-0.00886605	-0.00210154	
      1547	-0.00467850	0.00691779	-0.01079876	-0.00242366	
      1548	-0.00822181	0.01819197	-0.01144300	-0.00081307	
      1549	0.00434084	0.00659567	-0.01273148	-0.00210154	
      1550	0.00530720	-0.01079876	-0.01047664	-0.00016883	
      1551	-0.00177943	-0.00628909	-0.01015453	0.00176389	
      1552	-0.01240936	-0.00016883	-0.00371214	-0.00177943	
      1553	-0.01079876	0.00111965	-0.00339002	-0.00049095	
      1554	0.01142746	0.00176389	-0.00049095	-0.00113519	
      1555	0.01980256	0.00595144	0.00498508	-0.00049095	
      1556	0.00756203	0.02237952	0.01110534	0.00595144	
      1557	-0.00822181	0.02817766	0.01207170	0.00144177	
      1558	-0.01112088	0.01497078	0.01174958	0.00111965	
      1559	-0.01820751	0.01754773	0.01239382	0.00047541	
      1560	-0.01917386	0.01786985	0.01271594	-0.00210154	
      1561	-0.01144300	0.00240812	0.00981687	-0.00113519	
      1562	-0.00854393	-0.00081307	0.00788415	0.00047541	
      1563	-0.00854393	-0.01852963	0.00111965	0.00401872	
      1564	-0.00371214	-0.03882314	-0.00371214	0.00015329	
      1565	-0.00210154	-0.05943877	-0.00628909	0.00111965	
      1566	0.00015329	-0.05879453	-0.01466419	-0.00016883	
      1567	0.02173528	-0.03560194	-0.01112088	0.00144177	
      1568	0.02592283	-0.02336141	-0.01369784	-0.00016883	
      1569	0.01368230	0.00047541	-0.00951029	-0.00016883	
      1570	0.00498508	0.03300945	-0.00918817	-0.00274578	
      1571	0.00627356	0.05910111	-0.00918817	-0.00081307	
      1572	0.01625925	0.02334588	-0.00596698	0.00434084	
      1573	0.03172098	-0.00693333	-0.00371214	0.00015329	
      1574	0.01464866	0.00949475	-0.00016883	0.00047541	
      1575	-0.00016883	0.04331727	0.00305236	-0.00049095	
      1576	-0.00661121	0.05749052	0.01336018	0.00047541	
      1577	-0.02014022	0.04170667	0.01303806	-0.00242366	
      1578	-0.00918817	0.03977396	0.01110534	0.01013899	
      1579	-0.00564486	0.02946614	0.01400442	0.01110534	
      1580	-0.04043373	0.01432654	0.01207170	0.00337448	
      1581	-0.03753466	-0.00628909	0.01013899	0.00369660	
      1582	-0.01401996	-0.02207294	0.00562932	-0.00081307	
      1583	-0.00918817	-0.01885174	-0.00016883	-0.00081307	
      1584	0.00079753	-0.00500062	-0.00467850	-0.00435638	
      1585	0.00723991	-0.00564486	-0.00435638	-0.00403426	
      1586	0.00595144	-0.01273148	-0.00693333	-0.00306790	
      1587	0.00852839	-0.01112088	-0.00564486	-0.00145731	
      1588	0.00498508	-0.01337572	-0.01176512	-0.00210154	
      1589	0.00401872	-0.01852963	-0.01305360	0.00273024	
      1590	0.00434084	-0.01885174	-0.01176512	0.00273024	
      1591	0.00788415	-0.01949598	-0.01079876	-0.00049095	
      1592	0.01207170	-0.01627479	-0.00596698	-0.00435638	
      1593	0.01336018	-0.01176512	-0.00467850	0.00079753	
      1594	0.01110534	-0.02142870	-0.00467850	-0.00113519	
      1595	0.00530720	0.00079753	0.00208601	-0.00016883	
      1596	0.01046111	-0.00242366	0.00885051	0.00530720	
      1597	0.00369660	-0.00500062	0.00659567	0.00240812	
      1598	-0.00628909	0.00852839	0.01110534	-0.00339002	
      1599	-0.00113519	0.00015329	0.01142746	-0.00145731	
      1600	0.00144177	-0.01112088	0.01110534	-0.00081307	
      1601	-0.00693333	-0.02014022	0.00949475	0.00337448	
      1602	-0.00725545	-0.01530843	0.00659567	0.00047541	
      1603	-0.00983241	-0.01401996	0.00305236	-0.00339002	
      1604	-0.01724115	-0.00661121	-0.00210154	-0.00274578	
      1605	-0.02497201	-0.00628909	-0.00403426	-0.00145731	
      1606	-0.02432777	-0.00596698	-0.00725545	-0.00371214	
      1607	-0.02400565	0.04686058	-0.00822181	-0.00081307	
      1608	-0.03463559	0.05716840	-0.01176512	0.00208601	
      1609	-0.02754896	0.01207170	-0.01240936	0.00337448	
      1610	-0.00371214	-0.01820751	-0.01112088	0.00562932	
      1611	0.02302376	-0.02690473	-0.00983241	0.00401872	
      1612	0.04911542	-0.00854393	-0.00628909	0.00208601	
      1613	0.02721131	-0.00274578	-0.00177943	0.00079753	
      1614	-0.00113519	0.01142746	-0.00081307	-0.00177943	
      1615	-0.00886605	0.00176389	0.00337448	0.00144177	
      1616	-0.00049095	0.00079753	0.01174958	0.00337448	
      1617	0.00369660	-0.00113519	0.01207170	-0.00049095	
      1618	0.01368230	-0.00403426	0.01046111	-0.00371214	
      1619	0.01271594	-0.00467850	0.00885051	-0.00339002	
      1620	0.00659567	0.01722561	0.00885051	-0.00789969	
      1621	0.00949475	0.01915833	0.00337448	-0.01144300	
      1622	0.01432654	0.00498508	0.00434084	-0.00725545	
      1623	0.01078323	-0.00274578	0.00337448	-0.00435638	
      1624	-0.00177943	0.00466296	0.00434084	-0.00145731	
      1625	-0.00242366	0.00530720	-0.00177943	0.00498508	
      1626	0.00208601	0.00015329	-0.00661121	0.00369660	
      1627	0.00434084	-0.00339002	-0.00886605	0.00337448	
      1628	-0.00049095	-0.00403426	-0.00789969	-0.00016883	
      1629	-0.00403426	-0.00532274	-0.00628909	0.00305236	
      1630	-0.00983241	0.00015329	-0.00596698	0.00852839	
      1631	-0.00242366	-0.00145731	-0.00661121	0.00917263	
      1632	0.00273024	-0.00371214	-0.00564486	0.00111965	
      1633	0.00401872	-0.01112088	-0.00177943	0.00337448	
      1634	0.00562932	-0.01724115	-0.00274578	-0.00016883	
      1635	0.00401872	-0.02014022	0.00401872	-0.00145731	
      1636	0.00498508	-0.01369784	0.00820627	0.00208601	
      1637	-0.00757757	0.00369660	0.00852839	-0.00145731	
      1638	-0.00918817	-0.00628909	0.00659567	0.00079753	
      1639	-0.01112088	-0.00532274	0.00852839	0.00273024	
      1640	-0.00596698	0.01239382	0.00981687	0.00208601	
      1641	-0.00918817	-0.00274578	0.00627356	-0.00049095	
      1642	-0.00306790	-0.00628909	0.00434084	-0.00306790	
      1643	-0.00016883	-0.00725545	0.00079753	0.00079753	
      1644	-0.00371214	0.03075462	0.00176389	0.00176389	
      1645	-0.00403426	0.03623065	-0.00371214	-0.00081307	
      1646	-0.00500062	-0.00242366	-0.00886605	-0.00339002	
      1647	-0.00789969	-0.01047664	-0.01047664	0.00144177	
      1648	-0.00983241	0.00240812	-0.01273148	-0.00081307	
      1649	-0.00371214	0.00240812	-0.01112088	0.00047541	
      1649	-0.00049095	0.00305236	-0.01240936	0.00240812	
      1650	-0.00500062	0.00240812	-0.00789969	0.00530720	
      1652	0.00015329	0.01207170	-0.00918817	0.00595144	
      1653	0.00305236	0.02721131	-0.00339002	0.00111965	
      1654	0.01046111	-0.00016883	0.00273024	-0.00274578	
      1655	0.01110534	-0.02754896	0.00498508	-0.00757757	
      1656	0.00079753	-0.01917386	0.00917263	-0.00371214	
      1656	-0.00274578	-0.01498631	0.01142746	-0.00210154	
      1657	-0.00789969	-0.01820751	0.00820627	-0.00145731	
      1658	0.00305236	-0.02239506	0.00530720	0.00144177	
      1659	-0.00693333	-0.02239506	0.00627356	-0.00016883	
      1660	-0.03560194	-0.01724115	0.00820627	-0.00210154	
      1661	-0.01724115	-0.00661121	0.00530720	-0.00661121	
      1662	0.00691779	-0.00371214	-0.00016883	-0.00049095	
      1663	0.03107674	0.00562932	-0.00081307	-0.00339002	
      1664	0.01432654	0.01851409	-0.00371214	0.00273024	
      1665	-0.00467850	0.02978826	-0.00661121	0.00691779	
      1666	0.00852839	0.03751912	-0.00725545	0.00981687	
      1667	0.01690349	0.01786985	-0.01112088	0.00885051	
      1668	0.02656707	0.01464866	-0.00854393	0.01336018	
      1669	0.02237952	-0.00210154	-0.00951029	0.01464866	
      1670	0.01754773	-0.01208724	-0.00822181	0.01400442	
      1671	0.01046111	-0.00983241	-0.00371214	0.00981687	
      1672	0.00401872	0.01110534	-0.00371214	0.00401872	
      1673	-0.00886605	0.02205740	-0.00049095	0.00015329	
      1674	-0.01208724	0.00627356	0.00273024	-0.00210154	
      1675	-0.00822181	0.00337448	0.01046111	-0.00661121	
      1676	0.00530720	0.00240812	0.01142746	-0.00822181	
      1677	-0.01917386	-0.00339002	0.01078323	-0.00532274	
      1678	-0.01949598	-0.01563055	0.01174958	-0.00532274	
      1679	-0.00725545	-0.02336141	0.00756203	0.00144177	
      1680	-0.00242366	-0.02207294	0.00917263	0.00498508	
      1681	-0.01079876	-0.01917386	0.00562932	0.00369660	
      1682	-0.02754896	-0.01047664	0.00079753	0.00562932	
      1683	-0.02561625	-0.00789969	0.00208601	0.00208601	
      1684	0.00949475	-0.00435638	0.00047541	0.00595144	
      1685	-0.00500062	0.01239382	-0.00757757	0.00273024	
      1686	-0.01176512	0.01464866	-0.00918817	0.00240812	
      1687	-0.00983241	0.00723991	-0.01047664	-0.00081307	
      1688	-0.00403426	0.00595144	-0.00886605	-0.00177943	
      1689	-0.00596698	0.00240812	-0.01015453	-0.00725545	
      1690	-0.00274578	-0.00306790	-0.01015453	-0.00500062	
      1691	0.00659567	-0.00596698	-0.00564486	-0.00145731	
      1692	0.01948044	-0.00435638	-0.00693333	-0.00274578	
      1693	0.02205740	-0.00145731	0.00144177	-0.00306790	
      1694	0.01625925	-0.00725545	0.00659567	-0.00210154	
      1695	0.00401872	-0.00564486	0.01174958	0.00144177	
      1696	-0.01852963	-0.00049095	0.01142746	0.00337448	
      1697	-0.03334711	0.01013899	0.00981687	0.00240812	
      1698	-0.02207294	0.01207170	0.01174958	-0.00081307	
      1699	-0.00628909	0.00015329	0.00949475	-0.00177943	
      1700	-0.00339002	-0.00532274	0.00981687	-0.00210154	
      1701	0.00917263	-0.00532274	0.00466296	-0.00016883	
      1702	0.01110534	-0.00306790	0.00466296	-0.00177943	
      1703	0.00820627	-0.00274578	0.00079753	0.00047541	
      1704	-0.00177943	-0.00564486	-0.00371214	0.00079753	
      1705	-0.01401996	-0.00177943	-0.00854393	-0.00500062	
      1706	0.00015329	0.01239382	-0.01047664	-0.00081307	
      1707	0.02463435	0.01948044	-0.00854393	0.00015329	
      1708	0.01432654	-0.00274578	-0.01079876	-0.00081307	
      1709	0.00949475	-0.00564486	-0.00951029	0.00144177	
      1710	0.00659567	-0.00467850	-0.00854393	0.00015329	
      1711	0.00691779	-0.00339002	-0.00467850	0.00144177	
      1712	0.01078323	0.00305236	-0.00210154	0.00369660	
      1713	0.02109104	-0.00339002	-0.00242366	0.00144177	
      1714	0.01722561	-0.00757757	0.00562932	0.00401872	
      1715	0.01432654	-0.00918817	0.00627356	0.01271594	
      1716	0.00852839	-0.00983241	0.00949475	0.01303806	
      1717	-0.00500062	-0.00596698	0.01078323	0.00627356	
      1718	0.00595144	-0.02593837	0.01142746	0.00111965	
      1719	-0.00306790	-0.00951029	0.01013899	0.00240812	
      1720	-0.01917386	0.00434084	0.01271594	-0.00339002	
      1721	-0.01401996	-0.00113519	0.00337448	-0.00403426	
      1722	-0.01820751	0.01497078	0.00305236	-0.00145731	
      1723	-0.02497201	0.02431223	0.00144177	-0.00274578	
      1724	-0.01273148	0.03011038	-0.00532274	0.00369660	
      1725	-0.02046234	0.01819197	-0.00725545	0.00208601	
      1726	-0.02110658	0.00305236	-0.01273148	0.00079753	
      1727	-0.01079876	0.00562932	-0.01047664	-0.00306790	
      1728	0.01464866	0.00434084	-0.01208724	-0.00532274	
      1729	-0.00177943	0.00305236	-0.01079876	-0.00306790	
      1730	-0.00016883	-0.00371214	-0.00886605	-0.00242366	
      1731	0.00756203	-0.00596698	-0.00693333	-0.00403426	
      1732	0.00949475	-0.00435638	-0.00596698	-0.00274578	
      1733	0.00208601	-0.00210154	0.00079753	-0.00306790	
      1734	-0.00339002	0.00047541	0.00176389	0.00144177	
      1735	-0.00403426	0.00595144	0.00885051	0.00691779	
      1736	-0.01401996	0.00562932	0.00917263	0.00530720	
      1737	-0.00983241	0.01013899	0.01207170	0.00111965	
      1738	0.01078323	-0.00532274	0.01303806	-0.00016883	
      1739	0.01819197	-0.01917386	0.01368230	0.00498508	
      1740	0.02817766	-0.02046234	0.00885051	0.00144177	
      1741	0.00981687	-0.01917386	0.00659567	0.00337448	
      1742	0.02141316	-0.01273148	0.00369660	-0.00242366	
      1743	0.02141316	-0.00854393	0.00144177	0.00047541	
      1744	-0.00274578	0.02366799	-0.00113519	0.00595144	
      1745	-0.01337572	0.03977396	-0.00757757	0.00305236	
      1746	-0.02658261	0.01400442	-0.01047664	0.00434084	
      1747	-0.00918817	-0.00049095	-0.01079876	0.00047541	
      1748	0.00176389	-0.00693333	-0.01305360	-0.00242366	
      1749	0.00144177	0.01013899	-0.01208724	0.00015329	
      1750	-0.00564486	-0.00145731	-0.00951029	0.00079753	
      1751	0.00466296	0.00723991	-0.00854393	-0.00210154	
      1752	-0.02078446	-0.04913095	-0.06040512	0.01271594	
      1753	-0.03817890	0.00273024	0.00015329	0.00530720	
      1754	-0.02980380	0.02044680	0.00208601	-0.00016883	
      1755	-0.02787108	0.02399011	0.00885051	0.00079753	
      1756	-0.03785678	0.01625925	0.01142746	0.00047541	
      1757	-0.01820751	0.00949475	0.01464866	-0.00145731	
      1758	0.00111965	0.00337448	0.01110534	-0.00532274	
      1759	0.00820627	0.00981687	0.01078323	-0.00371214	
      1760	0.01658137	0.00659567	0.00788415	-0.00113519	
      1761	0.01851409	-0.01079876	0.00723991	0.00015329	
      1762	0.03462005	-0.01627479	0.00466296	-0.00210154	
      1763	0.03236521	-0.02110658	0.00466296	0.00337448	
      1764	0.02205740	-0.02175082	0.00111965	0.00691779	
      1765	0.01658137	-0.03850102	-0.00886605	0.00981687	
      1766	0.00691779	-0.03044804	-0.00951029	0.01174958	
      1767	0.01078323	-0.01530843	-0.01273148	0.00723991	
      1768	0.00949475	-0.00435638	-0.00918817	0.00401872	
      1769	0.02237952	0.00079753	-0.00822181	0.00401872	
      1770	0.02785555	0.00981687	-0.00789969	0.00079753	
      1771	0.01690349	-0.00467850	-0.00725545	-0.00016883	
      1772	0.00466296	-0.01273148	-0.00403426	-0.00371214	
      1773	-0.00532274	-0.01015453	-0.00049095	-0.00403426	
      1774	-0.01691903	0.00756203	-0.00113519	-0.00081307	
      1775	-0.00757757	0.01497078	0.01078323	-0.00210154	
      1776	-0.00145731	0.00434084	0.01239382	-0.00113519	
      1777	-0.00628909	0.00144177	0.00917263	0.00208601	
      1778	-0.00145731	-0.00628909	0.00434084	0.00530720	
      1779	-0.00951029	-0.00177943	0.00788415	-0.00210154	
      1780	-0.00435638	-0.00113519	0.00691779	0.00047541	
      1781	-0.00113519	-0.00242366	0.00498508	-0.00177943	
      1782	-0.00177943	-0.00242366	0.00659567	0.00079753	
      1783	-0.00371214	0.00015329	0.00305236	0.00111965	
      1784	-0.00049095	-0.00596698	-0.00049095	0.00305236	
      1785	0.00659567	-0.01305360	-0.00822181	0.00466296	
      1786	0.00401872	-0.01369784	-0.00951029	0.01110534	
      1787	0.00691779	-0.01047664	-0.00951029	0.00562932	
      1788	-0.00049095	-0.03527983	-0.00757757	0.00176389	
      1789	-0.01273148	-0.04397704	-0.01015453	0.00305236	
      1790	-0.02271718	-0.05074155	-0.01144300	-0.00532274	
      1791	-0.02529413	-0.04977519	-0.00596698	-0.00081307	
      1792	-0.00951029	-0.03495771	-0.00628909	0.00015329	
      1793	-0.00403426	-0.00371214	0.00240812	-0.00500062	
      1794	0.00595144	0.06103383	0.00176389	-0.00854393	
      1795	0.00208601	0.11225079	0.00981687	-0.00789969	
      1796	0.00885051	0.07359648	0.01142746	-0.01144300	
      1797	0.00111965	0.04621634	0.00981687	-0.01176512	
      1798	0.00498508	0.02914402	0.00885051	-0.01112088	
      1799	0.00756203	0.02592283	0.00981687	-0.00789969	
      1800	0.00015329	0.01883621	0.01174958	-0.00822181	
      1801	-0.00532274	0.01593713	0.00981687	-0.00306790	
      1802	-0.00789969	0.01174958	0.00595144	0.00691779	
      1803	-0.00532274	0.00756203	0.00015329	0.01336018	
      1804	-0.00789969	0.00723991	-0.00403426	0.01013899	
      1805	-0.00564486	0.01110534	-0.00822181	0.00273024	
      1806	-0.00628909	-0.00822181	-0.00532274	0.00240812	
      1807	-0.00500062	-0.01369784	-0.01047664	0.00530720	
      1808	-0.00435638	-0.01595267	-0.01273148	0.00659567	
      1809	-0.00467850	-0.01498631	-0.01144300	0.00466296	
      1810	-0.00145731	-0.00822181	-0.00822181	0.01013899	
      1811	-0.00049095	0.00208601	-0.00500062	0.00756203	
      1812	-0.00145731	0.01239382	-0.00177943	0.00079753	
      1813	-0.00306790	0.01625925	0.00337448	-0.00242366	
      1814	0.00015329	0.00337448	0.00595144	-0.00049095	
      1815	0.00949475	-0.00339002	0.00917263	0.00434084	
      1816	0.00691779	-0.00113519	0.01336018	0.00273024	
      1817	0.00852839	-0.00757757	0.01142746	-0.00145731	
      1818	0.00885051	-0.01176512	0.01174958	-0.00242366	
      1819	0.01174958	-0.01530843	0.00756203	0.00047541	
      1820	-0.00145731	-0.00822181	0.00756203	0.00240812	
      1821	0.00208601	-0.01627479	0.00595144	0.00144177	
      1822	0.00176389	-0.02368353	0.00401872	-0.00274578	
      1823	0.00305236	-0.03109228	0.00047541	0.00111965	
      1824	0.00369660	-0.01820751	-0.00532274	-0.00177943	
      1825	-0.00403426	-0.00049095	-0.00435638	-0.00274578	
      1826	0.00015329	-0.00983241	-0.01144300	-0.00500062	
      1827	0.00111965	0.00144177	-0.01047664	-0.00435638	
      1828	0.00047541	0.01851409	-0.01112088	-0.00113519	
      1829	0.00015329	0.01464866	-0.01015453	0.00337448	
      1830	0.00498508	0.00111965	-0.00854393	0.00079753	
      1831	0.00530720	-0.00693333	-0.00886605	-0.00467850	
      1832	0.00434084	-0.00854393	-0.00306790	-0.00016883	
      1833	0.01529289	-0.02014022	0.00047541	0.00079753	
      1834	0.01207170	-0.02142870	0.00562932	0.00208601	
      1835	-0.00371214	-0.01981810	0.00981687	0.00369660	
      1836	-0.01208724	-0.01595267	0.00949475	0.00176389	
      1837	-0.01691903	-0.01273148	0.00820627	0.00401872	
      1838	-0.01498631	-0.00016883	0.00852839	0.00337448	
      1839	-0.02110658	0.03462005	0.01046111	-0.00177943	
      1840	-0.01885174	0.03945184	0.01110534	-0.00274578	
      1841	-0.01208724	0.01690349	0.00981687	-0.00210154	
      1842	-0.01724115	0.04428363	0.00401872	-0.00113519	
      1843	-0.01144300	0.03494217	0.00273024	-0.00049095	
      1844	-0.00306790	0.02463435	-0.00274578	-0.00081307	
      1845	-0.00306790	0.01336018	-0.00757757	-0.00177943	
      1846	0.00144177	-0.01079876	-0.00789969	0.00466296	
      1847	0.00885051	-0.04558764	-0.00886605	0.00273024	
      1848	0.02366799	-0.04462128	-0.01079876	0.00111965	
      1849	0.03462005	-0.03173651	-0.01208724	0.00337448	
      1850	0.02946614	-0.02014022	-0.01047664	0.01110534	
      1851	0.02366799	-0.00822181	-0.00467850	0.01046111	
      1852	0.00401872	0.00176389	-0.00564486	0.00111965	
      1853	-0.00789969	0.00562932	0.00015329	-0.00306790	
      1854	-0.01885174	0.02656707	0.00369660	-0.00789969	
      1855	-0.01885174	0.02173528	0.00530720	-0.00500062	
      1856	-0.01047664	0.01593713	0.01368230	-0.00532274	
      1857	-0.02271718	-0.00403426	0.01239382	-0.00081307	
      1858	-0.04816459	-0.01691903	0.01432654	0.00144177	
      1859	-0.02626049	-0.01756327	0.01464866	-0.00016883	
      1860	0.00691779	-0.00532274	0.01013899	0.00530720	
      1861	0.01013899	-0.00177943	0.00885051	0.00595144	
      1862	0.01658137	-0.00596698	0.00691779	0.00949475	
      1863	0.01980256	0.00530720	0.00337448	0.00530720	
      1864	0.01239382	0.00981687	0.00015329	0.00015329	
      1865	0.00047541	0.00917263	-0.00822181	-0.00177943	
      1866	-0.00403426	-0.00049095	-0.01112088	-0.00500062	
      1867	-0.00435638	0.00015329	-0.00918817	-0.00661121	
      1868	0.00756203	-0.00210154	-0.01015453	-0.00403426	
      1869	0.00369660	0.00111965	-0.01273148	0.00144177	
      1870	-0.01369784	0.00401872	-0.00886605	0.00337448	
      1871	-0.01144300	0.00273024	-0.00564486	-0.00306790	
      1872	-0.00725545	0.00756203	-0.00532274	-0.00306790	
      1873	-0.01401996	0.01754773	-0.00081307	0.00434084	
      1874	-0.00403426	-0.00661121	0.00401872	0.00981687	
      1875	-0.00113519	-0.01756327	0.00788415	0.01174958	
      1876	0.00466296	-0.02239506	0.00627356	0.00756203	
      1877	0.00305236	-0.01885174	0.00756203	0.00562932	
      1878	0.00144177	-0.01208724	0.00917263	0.00691779	
      1880	-0.00242366	-0.00789969	0.00917263	0.00208601	
      1881	-0.01208724	0.00659567	0.00659567	-0.00113519	
      1882	-0.01949598	0.01786985	0.00723991	-0.00081307	
      1883	-0.02046234	0.01174958	0.00015329	0.00144177	
      1884	-0.00725545	-0.03044804	-0.00596698	0.05942323	
      1885	0.02495647	0.01046111	-0.00145731	0.00047541	
      1886	0.01207170	0.00595144	-0.00661121	-0.00467850	
      1887	0.01078323	0.01142746	-0.00983241	-0.00693333	
      1888	0.02978826	0.01368230	-0.00886605	-0.00403426	
      1889	0.02334588	0.01142746	-0.00564486	-0.00081307	
      1890	0.01303806	0.00498508	-0.00983241	0.00079753	
      1891	0.02205740	0.00466296	-0.00822181	-0.00339002	
      1892	0.02366799	0.00659567	-0.00403426	-0.00403426	
      1893	0.01529289	0.00852839	-0.00371214	0.00079753	
      1894	0.00691779	0.00949475	0.00337448	0.00659567	
      1895	0.00917263	0.00498508	0.00337448	0.00434084	
      1896	0.00756203	0.00208601	0.00659567	-0.00081307	
      1897	0.00917263	-0.00145731	0.01174958	-0.00145731	
      1898	-0.00145731	-0.00049095	0.01400442	-0.00145731	
      1899	-0.01466419	-0.00016883	0.01174958	-0.00049095	
      1900	-0.01434208	-0.00435638	0.00788415	-0.00403426	
      1901	0.00691779	-0.00467850	0.00917263	-0.00339002	
      1902	-0.01401996	0.00144177	0.00691779	-0.00532274	
      1903	-0.03978949	-0.00339002	0.00530720	-0.00339002	
      1904	-0.01885174	-0.01305360	-0.00016883	-0.00371214	
      1905	-0.00242366	-0.01563055	-0.00532274	-0.00693333	
      1906	0.00434084	-0.01563055	-0.00693333	0.00047541	
      1907	0.00305236	-0.00983241	-0.00725545	0.00659567	
      1908	0.00079753	-0.00789969	-0.00822181	0.00273024	
      1909	-0.00016883	0.00723991	-0.00854393	0.00562932	
      1910	-0.00661121	0.04331727	-0.01240936	0.00723991	
      1911	-0.00757757	0.03300945	-0.00789969	0.01207170	
      1912	-0.01949598	0.01271594	-0.00757757	0.00691779	
      1913	-0.02078446	0.00305236	-0.00371214	-0.00145731	
      1914	-0.01337572	-0.00532274	-0.00274578	-0.00435638	
      1915	-0.00210154	-0.00757757	0.00176389	-0.00371214	
      1916	0.00401872	-0.01530843	0.00434084	0.00079753	
      1917	0.00337448	-0.00854393	0.01046111	0.00047541	
      1918	0.00047541	-0.00983241	0.00981687	-0.00210154	
      1919	0.00723991	-0.01079876	0.00627356	-0.00113519	
      1920	0.01013899	-0.00467850	0.00949475	-0.00113519	
      1921	0.01271594	-0.00274578	0.00852839	0.00047541	
      1922	0.01690349	-0.00693333	0.00723991	0.00691779	
      1923	0.01561501	-0.01176512	0.00466296	0.00820627	
      1924	0.00337448	-0.00822181	0.00176389	0.00595144	
      1925	-0.00500062	-0.00532274	-0.00371214	0.00305236	
      1926	-0.01788539	0.00079753	-0.00210154	0.00208601	
      1927	-0.02787108	0.00981687	-0.00789969	0.00240812	
      1928	-0.02690473	0.00659567	-0.00725545	0.00337448	
      1929	-0.00757757	-0.00113519	-0.00983241	-0.00049095	
      1930	-0.00435638	-0.00306790	-0.00918817	-0.00049095	
      1931	-0.00242366	-0.00628909	-0.00435638	0.00176389	
      1932	0.00756203	-0.00371214	-0.00403426	0.00047541	
      1933	0.00788415	0.01658137	-0.00177943	-0.00306790	
      1934	0.01303806	0.01497078	0.00208601	0.00079753	
      1935	0.02141316	-0.00306790	0.00627356	0.00466296	
      1936	0.02463435	-0.01208724	0.00756203	0.00595144	
      1937	0.02399011	-0.01981810	0.00885051	0.00079753	
      1938	0.00756203	-0.01788539	0.01013899	0.00240812	
      1939	-0.00500062	-0.00951029	0.00949475	-0.00145731	
      1940	-0.01305360	-0.01273148	0.00917263	0.00015329	
      1941	-0.01401996	-0.00177943	0.01013899	0.00240812	
      1942	-0.00016883	0.00466296	0.00852839	0.00079753	
      1943	0.00047541	0.00111965	0.00595144	-0.00177943	
      1944	-0.02690473	0.00208601	0.00079753	-0.00177943	
      1945	-0.01015453	-0.00918817	-0.00306790	-0.00016883	
      1946	-0.01305360	0.02624495	-0.00757757	-0.00532274	
      1947	-0.02368353	0.04428363	-0.01144300	-0.00339002	
      1948	-0.01047664	0.02109104	-0.01112088	-0.00210154	
      1949	-0.00049095	0.00595144	-0.00886605	0.00208601	
      1950	0.00047541	0.01174958	-0.01112088	0.00498508	
      1951	0.00434084	0.00852839	-0.00725545	0.00723991	
      1952	0.00434084	0.00337448	-0.00500062	0.00369660	
      1953	-0.00113519	0.00240812	-0.00177943	0.00434084	
      1954	0.01046111	-0.00145731	0.00047541	0.00111965	
      1955	0.00627356	0.00176389	0.00595144	-0.00242366	
      1956	0.00273024	0.00466296	0.00788415	-0.00049095	
      1957	0.00627356	0.00305236	0.00949475	-0.00274578	
      1958	0.00498508	-0.00306790	0.01110534	-0.00145731	
      1959	0.00369660	-0.00467850	0.00885051	-0.00274578	
      1960	0.00079753	-0.00177943	0.01110534	-0.00145731	
      1961	0.00852839	0.00144177	0.00595144	0.00015329	
      1962	0.00079753	-0.00757757	0.00562932	-0.00016883	
      1963	0.01722561	-0.01305360	-0.00049095	-0.00274578	
      1964	-0.00177943	-0.00854393	0.00208601	-0.00628909	
      1965	-0.01595267	-0.00339002	-0.00306790	-0.00532274	
      1966	-0.01112088	0.01464866	-0.00789969	-0.01240936	
      1967	-0.00210154	-0.01144300	-0.00918817	-0.00113519	
      1968	0.00337448	-0.01949598	-0.00983241	0.00208601	
      1969	0.00530720	-0.00339002	-0.01112088	0.00111965	
      1970	0.02141316	-0.01144300	-0.01015453	-0.00145731	
      1971	0.00434084	-0.01047664	-0.00918817	-0.00049095	
      1972	-0.00403426	-0.00403426	-0.00628909	0.00595144	
      1973	-0.00822181	-0.00789969	-0.00371214	0.00788415	
      1974	-0.01176512	-0.00532274	-0.00081307	0.00691779	
      1975	-0.01015453	0.00820627	0.00369660	0.00627356	
      1976	-0.02110658	0.01786985	0.01207170	0.00337448	
      1977	-0.00854393	0.00337448	0.01432654	0.00498508	
      1978	-0.01820751	-0.00339002	0.01303806	0.00144177	
      1979	-0.01240936	0.00788415	0.01207170	-0.00145731	
      1980	0.01142746	-0.00242366	0.01110534	-0.00789969	
      1981	0.00595144	-0.00757757	0.00917263	-0.00564486	
      1982	-0.01144300	-0.01401996	0.00530720	-0.00628909	
      1983	-0.03012592	-0.01949598	0.00530720	0.00337448	
      1984	-0.01530843	-0.02368353	-0.00210154	0.01303806	
      1985	-0.02014022	-0.00339002	-0.00435638	0.00498508	
      1986	-0.02626049	0.01948044	-0.00532274	0.00240812	
      1987	0.00852839	0.02592283	-0.00951029	0.00562932	
      1988	0.08680337	0.03848548	-0.00564486	0.00079753	
      1989	0.09131304	0.02849978	-0.01434208	-0.00403426	
      1990	0.05330297	0.00305236	-0.00661121	0.00144177	
      1991	0.03848548	-0.00049095	-0.00757757	-0.00049095	
      1992	0.02044680	0.00079753	-0.00532274	-0.00596698	
      1993	0.00820627	0.00015329	-0.00339002	-0.00049095	
      1994	0.00305236	-0.00628909	0.00079753	0.00208601	
      1995	0.00595144	-0.01015453	-0.00049095	0.00337448	
      1996	-0.00918817	-0.00016883	0.01110534	0.00208601	
      1997	-0.00789969	0.00079753	0.01271594	0.00015329	
      1998	-0.01176512	-0.00983241	0.01303806	-0.00274578	
      1999	-0.01144300	-0.00177943	0.01078323	-0.00435638	
      2000	-0.01240936	0.00788415	0.00949475	-0.00596698	
      2001	-0.01466419	0.00562932	0.00949475	-0.00339002	
      2002	-0.02078446	0.01046111	0.00788415	-0.00435638	
      2003	-0.02432777	0.01948044	0.00305236	0.00079753	
      2004	-0.02368353	0.02656707	0.00240812	0.00079753	
      2005	-0.02658261	-0.00242366	-0.00274578	-0.00113519	
      2006	-0.01724115	-0.02046234	-0.00532274	-0.00210154	
      2007	-0.01595267	-0.00467850	-0.00886605	0.00337448	
      2008	-0.01144300	-0.01563055	-0.00951029	0.00756203	
      2009	-0.00500062	-0.01112088	-0.01208724	0.00917263	
      2010	-0.00339002	-0.00532274	-0.00918817	0.00498508	
      2011	-0.00242366	-0.00628909	-0.00854393	0.00369660	
      2012	0.00305236	-0.01208724	-0.00951029	0.00273024	
      2013	-0.00242366	-0.00500062	-0.00628909	-0.00081307	
      2014	-0.00500062	-0.00016883	-0.00016883	-0.00467850	
      2015	-0.00113519	0.00176389	0.00562932	-0.00339002	
      2016	0.00111965	0.00820627	0.00885051	0.00111965	
      2017	0.01046111	-0.01112088	0.01110534	-0.00049095	
      2018	0.00208601	-0.01337572	0.01142746	-0.00306790	
      2019	0.00434084	-0.01401996	0.01303806	-0.00210154	
      2020	0.00273024	-0.02239506	0.00949475	-0.00081307	
      2021	0.00079753	-0.02626049	0.00530720	-0.00081307	
      2022	-0.01563055	-0.02851532	0.00723991	0.00111965	
      2023	-0.02787108	-0.00210154	0.00466296	0.00240812	
      2024	-0.02014022	0.03558641	0.00144177	0.00723991	
      2025	-0.00725545	0.01658137	-0.00339002	0.00240812	
      2026	-0.01788539	0.00176389	-0.00725545	-0.00242366	
      2027	0.00079753	-0.00564486	-0.00693333	-0.00306790	
      2027	0.00885051	0.01110534	-0.00500062	-0.00757757	
      2028	0.01078323	0.01948044	-0.00951029	-0.00564486	
      2029	0.01786985	0.02753343	-0.01015453	0.00111965	
      2030	0.01529289	0.04589422	-0.00886605	0.00723991	
      2031	0.01174958	0.05523568	-0.00564486	0.01013899	
      2032	0.00820627	0.02205740	0.00079753	0.00305236	
      2033	0.00498508	0.00369660	0.00240812	-0.00371214	
      2034	0.00466296	-0.00274578	0.00337448	-0.00049095	
      2035	0.00466296	-0.00177943	0.00820627	0.00015329	
      2036	-0.00081307	0.00498508	0.01400442	-0.00339002	
      2037	-0.00661121	0.01336018	0.01207170	0.00240812	
      2038	-0.00467850	0.01078323	0.00981687	-0.00113519	
      2039	-0.00596698	0.01529289	0.00852839	-0.00564486	
      2040	-0.00210154	0.01142746	0.00723991	0.00176389	
      2041	-0.00113519	0.00691779	0.00498508	-0.00049095	
      2042	0.00176389	0.00530720	0.00176389	0.00240812	
      2043	0.00401872	0.00015329	0.00240812	-0.00113519	
      2044	0.00852839	-0.00661121	-0.00435638	-0.00049095	
      2045	0.00498508	-0.03689042	-0.00596698	0.00530720	
      2046	0.00723991	-0.03817890	-0.00951029	0.00111965	
      2047	0.00981687	-0.02529413	-0.01015453	-0.00177943	
      2048	0.01174958	-0.01949598	-0.00886605	0.00111965	
      2049	0.00820627	-0.02303929	-0.01305360	0.00240812	
      2050	-0.00661121	-0.02303929	-0.00951029	0.00208601	
      2051	0.00015329	-0.02303929	-0.00435638	-0.00306790	
      2052	0.00015329	-0.02078446	-0.00274578	-0.00403426	
      2053	0.02044680	-0.01466419	-0.00403426	-0.00339002	
      2054	0.00659567	-0.00306790	0.00079753	-0.00306790	
      2055	-0.00435638	0.00401872	0.00756203	0.00079753	
      2056	-0.00339002	0.01529289	0.00885051	-0.00274578	
      2057	-0.00371214	0.01658137	0.01046111	-0.00564486	
      2058	0.00917263	0.00369660	0.00756203	-0.00661121	
      2059	0.00595144	-0.00339002	0.01078323	-0.00693333	
      2060	-0.01079876	-0.00693333	0.00917263	-0.00177943	
      2061	-0.01337572	-0.00371214	0.00691779	0.00273024	
      2062	0.00434084	-0.01240936	0.00434084	0.00273024	
      2063	0.00401872	-0.01595267	-0.00081307	0.00015329	
