‘ª’èŽžŠÔ	T1Raw	T2Raw	T3Raw	T4Raw	
         0	0.00208601	-0.02722684	0.00337448	0.00434084	
         1	0.01110534	-0.02915956	0.00788415	0.00111965	
         2	-0.00467850	-0.01369784	0.01110534	-0.00177943	
         3	-0.00532274	0.02366799	0.01110534	-0.00886605	
         4	-0.00177943	0.06650986	0.00852839	-0.00306790	
         5	0.01658137	0.03333157	0.00820627	-0.00242366	
         6	0.01078323	0.01078323	0.00723991	-0.00242366	
         7	0.00111965	0.00595144	0.00562932	-0.00693333	
         8	-0.00886605	0.00917263	0.00079753	-0.00951029	
         9	-0.01208724	0.00498508	-0.00274578	-0.00403426	
        10	-0.00564486	0.01754773	-0.00564486	-0.00371214	
        11	-0.00886605	0.01174958	-0.00725545	0.00305236	
        12	-0.01112088	0.00111965	-0.00757757	0.00852839	
        13	-0.01401996	0.00627356	-0.00983241	0.01110534	
        14	-0.00081307	0.00756203	-0.01144300	0.01013899	
        15	-0.00242366	0.01529289	-0.00951029	0.00562932	
        16	-0.00242366	0.01754773	-0.00564486	0.00369660	
        17	0.00305236	0.01561501	-0.00403426	0.00208601	
        18	0.01110534	-0.02948168	-0.00596698	-0.00177943	
        19	-0.00081307	-0.03785678	-0.00081307	-0.00210154	
        20	-0.02014022	-0.01691903	0.00498508	0.00144177	
        21	-0.01401996	0.00240812	0.00595144	0.00788415	
        22	0.01174958	-0.00274578	0.01239382	0.00079753	
        23	0.01658137	-0.01981810	0.01142746	-0.00274578	
        24	0.01625925	-0.01112088	0.00885051	-0.00661121	
        25	0.00659567	-0.04397704	0.00820627	0.00144177	
        26	0.00562932	-0.04558764	0.00949475	-0.00210154	
        27	0.01110534	0.01497078	0.00562932	-0.00564486	
        28	0.01271594	0.00756203	0.00240812	-0.00339002	
        29	-0.00403426	-0.01466419	-0.00210154	-0.00210154	
        30	-0.01852963	-0.05203002	-0.00339002	-0.00081307	
        31	-0.01595267	0.00208601	-0.00242366	0.00659567	
        32	-0.02336141	0.02205740	-0.01047664	0.00595144	
        33	-0.01563055	0.06554350	-0.01112088	0.00820627	
        34	0.00498508	0.05652416	-0.01240936	0.00498508	
        35	-0.01176512	0.04911542	-0.00822181	-0.00016883	
        36	-0.01659691	0.03011038	-0.01144300	-0.00274578	
        37	-0.01498631	0.01142746	-0.00951029	-0.00564486	
        38	-0.01434208	0.00659567	-0.00371214	-0.00596698	
        39	-0.00854393	0.00820627	0.00047541	-0.00789969	
        40	-0.01369784	0.01336018	0.00273024	-0.00467850	
        41	-0.00628909	-0.00145731	0.00498508	-0.00628909	
        42	0.00337448	-0.01369784	0.00691779	-0.00403426	
        43	0.00434084	-0.01208724	0.00852839	0.00691779	
        44	0.00562932	0.01078323	0.00852839	0.00305236	
        45	0.00401872	-0.00403426	0.00852839	0.00208601	
        46	0.00820627	-0.01015453	0.00305236	-0.00145731	
        47	0.00756203	0.02173528	0.00466296	-0.00145731	
        48	0.00691779	0.00981687	-0.00049095	-0.00210154	
        49	0.00176389	0.01046111	-0.00467850	0.00047541	
        50	0.00369660	0.03172098	-0.00661121	-0.00113519	
        51	-0.00435638	0.05072601	-0.00435638	-0.00145731	
        52	0.00208601	-0.02432777	-0.00725545	-0.00049095	
        53	0.01013899	-0.04333281	-0.00951029	-0.00016883	
        54	0.01174958	-0.03592406	-0.01273148	0.00015329	
        55	0.00756203	-0.03624618	-0.01079876	0.00208601	
        56	0.00240812	-0.00983241	-0.00693333	-0.00016883	
        57	0.00659567	-0.01208724	-0.00725545	0.00111965	
        58	0.00369660	-0.01595267	-0.00371214	-0.00113519	
        59	0.00466296	-0.02046234	0.00015329	0.00111965	
        60	0.00820627	-0.02658261	0.00176389	0.00176389	
        61	0.00852839	-0.01981810	0.00659567	-0.00016883	
        62	0.01078323	-0.02046234	0.00691779	0.00015329	
        63	0.00691779	0.00401872	0.00852839	-0.00274578	
        64	-0.00596698	0.01561501	0.01110534	-0.00177943	
        65	-0.00532274	0.00562932	0.01013899	-0.00339002	
        66	0.00015329	-0.00081307	0.00530720	-0.00274578	
        67	-0.00177943	-0.00403426	0.00562932	-0.00210154	
        68	-0.00371214	-0.00306790	0.00208601	-0.00306790	
        69	-0.00145731	-0.00403426	-0.00242366	-0.00403426	
        70	0.00047541	-0.00049095	-0.00274578	-0.00145731	
        71	0.00144177	-0.00339002	-0.00789969	0.00015329	
        72	0.00305236	-0.00564486	-0.00951029	0.00111965	
        73	0.00144177	-0.01788539	-0.01112088	0.00401872	
        74	-0.00467850	-0.02303929	-0.01079876	0.00273024	
        75	-0.01112088	-0.02626049	-0.00886605	0.00369660	
        76	-0.00757757	-0.02851532	-0.00918817	0.00176389	
        77	-0.00951029	0.00949475	-0.00596698	-0.00177943	
        78	-0.00854393	0.05137025	-0.00532274	-0.00016883	
        79	0.00047541	0.01819197	0.00144177	-0.00081307	
        80	0.00498508	0.01754773	0.00079753	0.00111965	
        81	0.02109104	0.00723991	0.00723991	0.00079753	
        82	0.01497078	0.00305236	0.01013899	-0.00145731	
        83	0.00466296	0.00240812	0.01013899	-0.00016883	
        84	0.00305236	-0.00049095	0.01046111	-0.00145731	
        85	0.00498508	-0.00177943	0.00756203	0.00015329	
        86	0.00144177	-0.00596698	0.00337448	-0.00049095	
        87	0.00788415	-0.00725545	0.00466296	-0.00403426	
        88	0.00273024	0.00498508	0.00176389	-0.00306790	
        89	0.00530720	0.00981687	0.00111965	-0.00371214	
        90	0.00434084	0.01368230	-0.00435638	-0.00210154	
        91	-0.00596698	0.01207170	-0.00725545	0.00434084	
        92	-0.01820751	0.00498508	-0.00822181	0.00208601	
        93	-0.01917386	-0.01144300	-0.00951029	-0.00145731	
        94	-0.01305360	-0.00500062	-0.01079876	-0.00274578	
        95	-0.01144300	0.00015329	-0.01208724	0.00079753	
        96	-0.01434208	0.00562932	-0.00822181	0.00015329	
        97	-0.02110658	0.00852839	-0.00467850	0.00498508	
        98	-0.00628909	0.00756203	-0.00049095	0.00498508	
        99	-0.00113519	0.00659567	0.00466296	0.00498508	
       100	-0.00177943	0.00691779	0.00434084	0.00176389	
       101	-0.00242366	-0.00532274	0.00820627	0.00401872	
       102	-0.00049095	-0.00918817	0.00852839	0.00401872	
       103	-0.00532274	-0.00177943	0.01013899	0.00723991	
       104	-0.00693333	-0.00564486	0.01303806	0.00562932	
       105	-0.00403426	-0.01176512	0.00917263	0.00691779	
       106	-0.00049095	-0.00628909	0.00595144	0.00466296	
       107	0.00530720	-0.00983241	0.00337448	-0.00177943	
       108	0.01174958	-0.01015453	0.00305236	-0.00435638	
       109	0.01174958	-0.01530843	-0.00210154	-0.00210154	
       110	0.01207170	-0.01144300	-0.00371214	-0.00339002	
       111	0.01400442	-0.01144300	-0.00564486	-0.00306790	
       112	0.00273024	0.00917263	-0.00983241	-0.00145731	
       113	-0.00339002	0.01658137	-0.01015453	0.00111965	
       114	0.00273024	0.00723991	-0.00854393	-0.00049095	
       115	0.00240812	0.01013899	-0.00854393	-0.00822181	
       116	0.00273024	0.00498508	-0.00628909	-0.00661121	
       117	0.00144177	0.00208601	-0.00339002	-0.00371214	
       118	0.00079753	0.00530720	-0.00145731	-0.00822181	
       119	-0.00822181	0.01658137	0.00337448	-0.01208724	
       120	-0.00951029	0.01013899	0.00337448	-0.00628909	
       121	-0.00886605	0.00756203	0.00498508	-0.00113519	
       122	-0.00661121	0.00595144	0.00981687	0.01271594	
       123	-0.00306790	0.00756203	0.00885051	0.01432654	
       124	-0.00532274	0.00111965	0.01046111	0.01174958	
       125	-0.00242366	-0.00081307	0.00852839	0.00595144	
       126	-0.00532274	-0.00145731	0.00369660	0.00498508	
       127	-0.00500062	-0.01820751	0.00530720	0.00949475	
       128	-0.00693333	-0.00532274	0.00337448	0.00111965	
       129	-0.01434208	0.00047541	0.00047541	0.00079753	
       130	0.00015329	-0.00242366	-0.00500062	0.00144177	
       131	0.01368230	-0.00339002	-0.00725545	-0.00081307	
       132	0.00885051	0.00079753	-0.00983241	-0.00177943	
       133	0.02817766	0.00208601	-0.01047664	-0.00532274	
       134	0.02270164	-0.01176512	-0.01273148	-0.00822181	
       135	0.00659567	-0.03882314	-0.01208724	-0.00113519	
       136	-0.00210154	-0.06362632	-0.01208724	-0.00113519	
       137	-0.02303929	-0.04590976	-0.00886605	0.00240812	
       138	-0.01240936	0.02399011	-0.00500062	0.00047541	
       139	-0.00403426	0.07263012	0.00305236	-0.00371214	
       140	-0.00886605	0.03558641	0.00756203	-0.00306790	
       141	0.00917263	0.03236521	0.00917263	-0.00500062	
       142	0.01336018	0.02076892	0.00917263	-0.00661121	
       143	0.01110534	0.00723991	0.00917263	-0.00306790	
       144	0.00562932	0.00595144	0.00885051	-0.00177943	
       145	-0.00016883	0.00337448	0.00981687	0.00305236	
       146	-0.01563055	0.00176389	0.00788415	0.00369660	
       147	-0.02851532	-0.00274578	0.00562932	0.00627356	
       148	-0.03141439	0.00627356	0.00337448	0.00820627	
       149	-0.00435638	0.00337448	-0.00306790	0.00434084	
       150	-0.00951029	0.01239382	-0.00435638	-0.00403426	
       151	-0.00049095	0.02141316	-0.00564486	-0.00661121	
       152	0.01625925	-0.00596698	-0.01015453	0.00047541	
       153	0.01110534	-0.00951029	-0.00983241	-0.00145731	
       154	0.00820627	-0.01240936	-0.01208724	0.00111965	
       155	0.00562932	-0.01079876	-0.00951029	0.00369660	
       156	0.00401872	-0.01337572	-0.00725545	0.00079753	
       157	0.00208601	-0.01208724	-0.00725545	-0.00339002	
       158	-0.00596698	-0.02175082	-0.00371214	-0.00274578	
       159	-0.00339002	-0.02883744	-0.00016883	-0.00371214	
       160	0.00337448	-0.03882314	0.00337448	-0.00081307	
       161	0.01239382	-0.01852963	0.00691779	-0.00242366	
       162	0.00562932	0.01915833	0.00885051	-0.00403426	
       163	0.01078323	0.04975965	0.00820627	-0.01047664	
       164	0.00498508	0.02109104	0.01110534	-0.01047664	
       165	-0.00435638	0.00981687	0.00627356	-0.00951029	
       166	-0.00403426	0.00917263	0.00659567	-0.00596698	
       167	-0.00918817	0.00852839	0.00466296	-0.00049095	
       168	-0.00596698	-0.01917386	0.00111965	0.00627356	
       169	0.00111965	0.00466296	-0.00242366	0.01078323	
       170	0.02270164	-0.00564486	-0.01112088	0.00401872	
       171	0.00595144	-0.00467850	-0.00500062	0.00015329	
       172	0.00401872	-0.00951029	-0.00789969	-0.00016883	
       173	-0.00081307	-0.00628909	-0.00918817	-0.00145731	
       174	-0.00306790	-0.02014022	-0.00918817	0.00111965	
       175	-0.00016883	-0.02464989	-0.00757757	-0.00274578	
       176	-0.00016883	-0.01756327	-0.00822181	-0.00467850	
       177	-0.00693333	0.01078323	-0.00242366	-0.00306790	
       178	-0.01337572	0.00949475	-0.00274578	0.00047541	
       179	-0.01112088	0.02173528	0.00079753	0.00627356	
       180	-0.00532274	-0.00306790	0.00240812	0.00691779	
       181	-0.00693333	-0.02142870	0.00369660	0.00917263	
       182	-0.00661121	-0.01981810	0.01013899	0.00949475	
       183	-0.00725545	-0.01852963	0.00627356	0.00627356	
       184	-0.01144300	-0.00886605	0.00885051	0.00723991	
       185	-0.00789969	0.03011038	0.00659567	0.00788415	
       186	-0.00242366	0.04170667	0.00949475	0.00852839	
       187	0.00047541	0.03880760	0.00530720	0.00369660	
       188	0.00401872	0.00885051	0.00273024	-0.00177943	
       189	0.01271594	-0.00435638	-0.00242366	-0.00242366	
       190	0.01497078	-0.00306790	-0.00435638	-0.00274578	
       191	0.02044680	-0.00371214	-0.00596698	-0.00661121	
       192	0.00788415	0.00111965	-0.00789969	-0.00467850	
       193	-0.00145731	0.00401872	-0.00918817	-0.00145731	
       194	0.00788415	-0.00242366	-0.01337572	0.00369660	
       195	0.02334588	-0.00628909	-0.01015453	0.00659567	
       196	0.02656707	-0.00725545	-0.01015453	0.00466296	
       197	0.02527859	-0.00628909	-0.00532274	0.00111965	
       198	0.01529289	-0.01337572	-0.00403426	0.00015329	
       199	-0.00177943	-0.01273148	0.00176389	0.00401872	
       200	-0.02046234	0.00111965	0.00015329	0.00015329	
       201	-0.03109228	0.00498508	0.00627356	-0.00435638	
       202	-0.01820751	0.00111965	0.00917263	-0.00532274	
       203	-0.01691903	-0.00049095	0.00981687	-0.00596698	
       204	-0.01949598	-0.00371214	0.00852839	-0.00725545	
       205	0.00111965	-0.01112088	0.00466296	-0.00564486	
       206	0.00305236	-0.00822181	0.00949475	0.00079753	
       207	0.00144177	-0.00500062	0.00466296	0.00079753	
       208	0.02012468	-0.00532274	0.00305236	-0.00371214	
       209	0.00047541	-0.00661121	-0.00113519	-0.00210154	
       210	-0.00306790	-0.00951029	-0.00532274	-0.00081307	
       211	-0.01788539	-0.01144300	-0.00789969	0.00273024	
       212	-0.01563055	-0.00564486	-0.00951029	0.00627356	
       213	-0.00983241	-0.00564486	-0.00951029	0.00337448	
       214	-0.00564486	-0.00113519	-0.01176512	0.00111965	
       215	0.00047541	0.02012468	-0.00951029	0.00144177	
       216	0.00562932	0.00498508	-0.00564486	-0.00113519	
       217	0.00273024	-0.00886605	-0.00500062	0.00079753	
       218	-0.00596698	-0.00049095	-0.00339002	0.00756203	
       219	-0.01434208	0.00949475	0.00337448	0.00691779	
       220	-0.01273148	0.04686058	0.00176389	0.00305236	
       221	-0.00951029	0.01368230	0.00240812	0.00079753	
       222	0.00627356	0.00659567	0.00885051	-0.00435638	
       223	0.00176389	0.00949475	0.01046111	-0.00403426	
       224	-0.00757757	0.00981687	0.00788415	-0.00596698	
       225	-0.00661121	0.01078323	0.00820627	-0.00371214	
       226	0.00240812	-0.00757757	0.00659567	-0.00339002	
       227	0.01497078	-0.03109228	0.00627356	-0.00693333	
       228	0.01013899	-0.02432777	0.00208601	0.00111965	
       229	0.01239382	0.00530720	-0.00306790	0.00111965	
       230	0.01786985	-0.00435638	-0.00628909	-0.00081307	
       231	0.00917263	-0.01273148	-0.00693333	-0.00403426	
       232	0.00434084	0.00981687	-0.00693333	-0.00016883	
       233	0.00240812	0.03268733	-0.00532274	-0.00242366	
       234	-0.00371214	0.02366799	-0.00983241	-0.00467850	
       235	-0.00210154	0.01786985	-0.01047664	-0.00210154	
       236	0.00015329	0.00144177	-0.00789969	-0.00016883	
       237	-0.00113519	-0.00886605	-0.00757757	0.00015329	
       238	-0.00145731	-0.02239506	-0.00177943	0.00015329	
       239	-0.00016883	-0.02851532	0.00176389	-0.00016883	
       240	0.00659567	0.00498508	0.00369660	0.00047541	
       241	0.00047541	0.00047541	0.00595144	0.00079753	
       242	-0.00210154	-0.00693333	0.00627356	0.00466296	
       243	-0.00339002	-0.00435638	0.00788415	0.00466296	
       244	-0.01530843	0.01078323	0.01110534	0.00305236	
       245	-0.02046234	0.02109104	0.00917263	0.00047541	
       246	-0.01144300	0.01078323	0.00917263	-0.00274578	
       247	-0.00371214	0.00756203	0.00723991	0.00079753	
       248	-0.00177943	-0.00822181	0.00176389	-0.00210154	
       249	-0.00467850	-0.00435638	-0.00210154	0.00111965	
       250	-0.00306790	-0.00918817	-0.00467850	0.00208601	
       251	-0.00242366	-0.01885174	-0.00983241	-0.00145731	
       252	0.00401872	-0.02915956	-0.00918817	-0.00145731	
       253	-0.00242366	0.02237952	-0.00854393	0.00240812	
       254	0.00595144	0.00852839	-0.01079876	0.00015329	
       255	0.01078323	-0.00306790	-0.01079876	-0.00306790	
       256	0.00885051	-0.00467850	-0.00918817	-0.00113519	
       257	0.00659567	-0.00371214	-0.00789969	0.00111965	
       258	0.00176389	-0.01820751	-0.00403426	0.00562932	
       259	0.00015329	-0.03077016	-0.00242366	0.00337448	
       260	0.00981687	-0.01530843	0.00111965	0.00498508	
       261	0.00917263	0.00820627	0.00723991	0.00305236	
       262	0.01625925	0.00337448	0.00691779	0.00079753	
       263	0.02334588	0.00530720	0.01013899	-0.00661121	
       264	-0.00016883	0.04170667	0.01174958	-0.00661121	
       265	-0.01724115	0.01658137	0.00949475	-0.00177943	
       266	-0.02432777	-0.00081307	0.00788415	-0.00049095	
       267	-0.01079876	0.00917263	0.00562932	0.00337448	
       268	-0.01949598	0.01529289	0.00305236	0.00208601	
       269	-0.03141439	0.01013899	-0.00403426	-0.00371214	
       270	-0.01466419	0.00273024	-0.00371214	-0.00435638	
       271	-0.01530843	-0.00596698	-0.00822181	-0.00081307	
       272	0.00852839	-0.01788539	-0.00918817	-0.00081307	
       273	0.01336018	-0.00693333	-0.01144300	0.00176389	
       274	0.01078323	-0.00016883	-0.00467850	-0.00339002	
       275	0.00949475	-0.00403426	-0.01176512	-0.00339002	
       276	0.00659567	-0.00532274	-0.00918817	0.00176389	
       277	0.00659567	-0.00113519	-0.00564486	0.00240812	
       278	0.00273024	0.00176389	-0.00177943	0.00240812	
       279	-0.00274578	0.00111965	0.00015329	0.00273024	
       280	-0.00242366	-0.01047664	0.00273024	0.01239382	
       281	0.01303806	-0.01724115	0.00498508	0.01336018	
       282	0.02270164	-0.01434208	0.00885051	0.00852839	
       283	0.01110534	-0.01917386	0.01046111	0.00562932	
       284	0.00273024	-0.01820751	0.01142746	-0.00339002	
       285	-0.01144300	0.00723991	0.00788415	-0.00661121	
       286	-0.01563055	-0.00822181	0.00788415	-0.00628909	
       287	-0.00822181	-0.00532274	0.00273024	-0.00306790	
       288	0.01013899	0.02205740	0.00337448	-0.00467850	
       289	0.00820627	0.03945184	0.00144177	-0.00274578	
       290	-0.00081307	0.03268733	-0.00467850	0.00079753	
       291	0.00176389	-0.00016883	-0.00854393	0.00144177	
       292	-0.00016883	-0.00113519	-0.01047664	0.00595144	
       293	-0.00435638	-0.00016883	-0.01240936	0.00369660	
       294	-0.00918817	0.00337448	-0.01208724	0.00562932	
       295	-0.00596698	-0.00339002	-0.01112088	0.00401872	
       296	-0.00145731	-0.01627479	-0.00983241	-0.00210154	
       297	0.00144177	-0.02046234	-0.00854393	-0.00532274	
       298	0.00434084	-0.01788539	-0.00403426	-0.00467850	
       299	0.00337448	-0.01144300	-0.00016883	-0.00661121	
       300	-0.00145731	0.02721131	0.00498508	-0.00371214	
       301	0.00111965	0.01851409	0.00788415	-0.00371214	
       302	0.00111965	0.01497078	0.01046111	-0.00757757	
       303	0.00047541	0.00111965	0.01239382	-0.00467850	
       304	-0.00177943	-0.00210154	0.01013899	0.00240812	
       305	-0.00500062	-0.00403426	0.00788415	0.00723991	
       306	-0.00886605	-0.00500062	0.00466296	0.00466296	
       307	-0.00661121	-0.00757757	0.00337448	0.00111965	
       308	-0.01144300	-0.01434208	0.00047541	-0.00500062	
       309	-0.01756327	-0.01466419	-0.00306790	-0.00371214	
       310	-0.01273148	-0.00725545	-0.00532274	-0.00371214	
       311	0.01529289	-0.00500062	-0.00822181	-0.00049095	
       312	-0.00500062	0.01690349	-0.00983241	0.00337448	
       313	-0.00757757	0.03751912	-0.01176512	0.00401872	
       314	-0.00854393	0.01529289	-0.01079876	0.00273024	
       315	-0.00789969	0.01464866	-0.00822181	0.00498508	
       316	0.00562932	-0.01015453	-0.00564486	0.00401872	
       317	-0.00467850	-0.00661121	-0.00596698	0.00111965	
       318	-0.01273148	0.00079753	-0.00177943	0.00079753	
       319	-0.00725545	-0.00049095	0.00176389	-0.00177943	
       320	0.00111965	-0.01595267	0.00595144	-0.00564486	
       321	0.00530720	-0.02432777	0.00788415	-0.00564486	
       322	-0.00242366	-0.02271718	0.00981687	-0.00242366	
       323	0.00691779	-0.02239506	0.01013899	-0.00242366	
       324	0.01174958	0.02688919	0.01142746	-0.00177943	
       325	0.00498508	0.03236521	0.00723991	-0.00435638	
       326	0.00885051	0.00176389	0.00498508	-0.00274578	
       327	0.01754773	-0.00789969	0.00434084	-0.00210154	
       328	0.01432654	-0.02110658	0.00627356	-0.00500062	
       329	0.00917263	-0.01563055	-0.00210154	0.00015329	
       330	-0.00435638	0.00369660	-0.00403426	0.00047541	
       331	-0.01530843	0.03300945	-0.00693333	0.00369660	
       332	-0.01208724	0.00562932	-0.00951029	0.00434084	
       333	-0.00564486	-0.00500062	-0.00886605	0.00240812	
       334	-0.01144300	-0.00435638	-0.00886605	-0.00081307	
       335	-0.01595267	0.01142746	-0.00918817	-0.00242366	
       336	-0.00596698	0.01464866	-0.00628909	0.00111965	
       337	0.00820627	0.01722561	-0.00596698	0.00305236	
       338	0.02366799	0.00723991	-0.00049095	0.00079753	
       339	0.02849978	0.00111965	-0.00145731	-0.00081307	
       340	0.03043250	-0.00210154	0.00401872	0.00273024	
       341	0.02270164	-0.00628909	0.00434084	0.00144177	
       342	0.01207170	-0.00661121	0.00820627	-0.00403426	
       343	-0.00918817	0.00208601	0.00949475	-0.00339002	
       344	-0.02658261	0.00562932	0.01078323	-0.00210154	
       345	-0.02464989	-0.00886605	0.00949475	0.00240812	
       346	-0.01530843	0.00530720	0.00691779	-0.00145731	
       347	-0.03656830	0.00273024	0.00498508	-0.00435638	
       348	-0.01595267	-0.00306790	-0.00049095	-0.00628909	
       349	-0.00016883	-0.00854393	-0.00242366	-0.00435638	
       350	0.00176389	-0.01144300	-0.00693333	-0.00113519	
       351	0.00079753	-0.01047664	-0.00822181	0.00176389	
       352	0.00369660	-0.00403426	-0.01112088	-0.00016883	
       353	0.00659567	0.00015329	-0.01047664	0.00047541	
       354	0.00111965	0.00562932	-0.01240936	0.00176389	
       355	-0.01047664	0.00756203	-0.01273148	0.00659567	
       356	-0.01305360	0.00659567	-0.00789969	0.00659567	
       357	0.00369660	0.00530720	-0.00177943	0.00047541	
       358	0.00756203	0.00595144	-0.00339002	-0.00371214	
       359	-0.00403426	0.00852839	0.00079753	-0.00371214	
       360	-0.00403426	0.00015329	0.00401872	0.00047541	
       361	-0.00757757	-0.01724115	0.00723991	-0.00242366	
       363	-0.00886605	-0.01691903	0.01013899	-0.00274578	
       364	0.01336018	-0.00822181	0.00756203	-0.00016883	
       365	0.02141316	-0.02851532	0.00659567	0.00434084	
       366	0.00240812	-0.01240936	0.00595144	0.00240812	
       367	-0.01530843	0.01819197	0.00659567	-0.00081307	
       368	0.00434084	0.00434084	0.00369660	0.00111965	
       368	0.01593713	0.00176389	0.00079753	0.00369660	
       369	0.00466296	-0.00177943	-0.00210154	-0.00081307	
       370	0.01046111	-0.03141439	-0.00467850	-0.00113519	
       371	0.00949475	-0.01627479	-0.00757757	-0.00145731	
       372	0.00627356	-0.00403426	-0.01047664	-0.00403426	
       373	0.01174958	0.00466296	-0.00983241	-0.00339002	
       374	0.01722561	0.01593713	-0.00918817	-0.00500062	
       375	0.02109104	0.02753343	-0.00693333	-0.00661121	
       376	0.01625925	0.01110534	-0.00596698	-0.00274578	
       377	0.02076892	0.00273024	-0.00500062	0.00144177	
       378	0.01883621	0.00015329	-0.00242366	0.00240812	
       379	0.00305236	0.00466296	-0.00016883	0.00434084	
       380	-0.01144300	0.00530720	0.00659567	0.00466296	
       381	-0.02368353	0.00434084	0.00723991	0.00917263	
       382	-0.02175082	0.00466296	0.00788415	0.00820627	
       383	-0.01627479	0.00240812	0.00723991	0.00691779	
       384	-0.01337572	-0.00242366	0.00756203	0.00659567	
       385	-0.00983241	0.00015329	0.00691779	0.00659567	
       386	-0.00467850	-0.00274578	0.00627356	0.00079753	
       387	-0.00016883	-0.00403426	0.00466296	0.00144177	
       388	0.00047541	-0.00403426	-0.00016883	0.00015329	
       389	-0.00016883	-0.00306790	-0.00403426	0.00240812	
       390	-0.00210154	-0.00596698	-0.00403426	0.00208601	
       391	-0.00435638	-0.00016883	-0.00628909	-0.00081307	
       392	-0.00467850	-0.00081307	-0.00951029	-0.00339002	
       393	-0.00403426	-0.00210154	-0.00918817	-0.00371214	
       394	-0.00757757	-0.00145731	-0.01079876	-0.00403426	
       395	-0.00983241	-0.00435638	-0.00822181	-0.00500062	
       396	-0.00951029	0.00047541	-0.00628909	-0.00532274	
       397	-0.01563055	-0.00145731	-0.00757757	-0.00242366	
       398	-0.01466419	-0.00113519	-0.00564486	-0.00339002	
       399	-0.01112088	-0.00177943	0.00047541	-0.00113519	
       400	-0.00339002	-0.00242366	0.00595144	0.00240812	
       401	0.00498508	-0.00435638	0.00691779	0.00305236	
       402	0.00595144	-0.00145731	0.00949475	0.00015329	
       403	0.00691779	-0.00049095	0.00917263	0.00369660	
       404	0.02109104	0.00305236	0.00949475	0.00305236	
       405	0.02044680	-0.00274578	0.00691779	0.00111965	
       406	0.01142746	-0.00693333	0.00530720	0.00434084	
       407	0.00434084	-0.00886605	0.00498508	0.00562932	
       408	-0.00145731	-0.00596698	0.00079753	0.00466296	
       409	-0.01434208	0.00369660	-0.00210154	-0.00242366	
       410	-0.01466419	0.00691779	-0.00339002	-0.00339002	
       411	-0.01563055	0.00498508	-0.00693333	-0.00564486	
       412	-0.02014022	0.00562932	-0.01015453	-0.01144300	
       413	-0.01466419	0.00595144	-0.00983241	-0.01756327	
       414	-0.00049095	-0.00113519	-0.01079876	-0.01466419	
       415	0.00369660	-0.00435638	-0.01079876	-0.00854393	
       416	0.00691779	-0.00757757	-0.00886605	-0.00177943	
       417	0.00498508	0.02205740	-0.00467850	-0.00049095	
       418	0.00949475	0.01786985	-0.00306790	0.00176389	
       419	0.00240812	0.00530720	0.00434084	0.00337448	
       420	-0.00789969	0.00337448	0.00627356	0.00305236	
       421	-0.00822181	0.00852839	0.00949475	-0.00177943	
       422	0.01432654	-0.00177943	0.01078323	-0.00564486	
       423	0.00401872	-0.01273148	0.01078323	-0.00242366	
       424	-0.00242366	0.00176389	0.01078323	-0.00145731	
       425	-0.00500062	0.02592283	0.00949475	0.00176389	
       426	0.00047541	0.00562932	0.00627356	0.00273024	
       427	-0.00467850	-0.00081307	0.00240812	0.00111965	
       428	-0.00339002	-0.00081307	-0.00049095	0.00401872	
       429	0.00144177	-0.00403426	-0.00564486	0.00434084	
       430	0.00756203	-0.00693333	-0.00661121	0.00723991	
       431	0.00756203	-0.00661121	-0.00789969	0.00369660	
       432	0.00723991	-0.00725545	-0.01079876	-0.00081307	
       433	0.00595144	-0.00564486	-0.00951029	-0.00210154	
       434	0.00208601	-0.00918817	-0.00951029	-0.00177943	
       435	-0.00113519	-0.00693333	-0.01112088	0.00434084	
       436	0.00530720	-0.00661121	-0.00886605	0.00144177	
       437	0.00498508	-0.00725545	-0.00725545	0.00176389	
       438	0.00981687	-0.00242366	-0.00210154	0.00144177	
       439	-0.00145731	0.00530720	0.00144177	-0.00177943	
       440	-0.00435638	0.00949475	0.00659567	-0.00467850	
       441	-0.00596698	0.00627356	0.00820627	-0.00081307	
       442	-0.00725545	0.00273024	0.01174958	-0.00403426	
       443	-0.00467850	-0.01337572	0.01078323	-0.00371214	
       444	-0.00854393	-0.00757757	0.00917263	-0.00500062	
       445	-0.00532274	-0.00371214	0.00917263	-0.00532274	
       446	-0.00693333	-0.00049095	0.00627356	0.00369660	
       447	-0.00371214	-0.01208724	0.00240812	0.00723991	
       448	0.02302376	-0.01724115	0.00111965	0.00240812	
       449	0.00981687	-0.01112088	-0.00081307	0.00627356	
       450	-0.00016883	-0.01208724	-0.00306790	0.00015329	
       451	0.00305236	-0.00016883	-0.00564486	0.00111965	
       452	-0.00661121	0.05942323	-0.00757757	0.00208601	
       453	-0.00467850	0.02527859	-0.00854393	-0.00081307	
       454	0.00530720	-0.01981810	-0.00951029	0.00273024	
       455	-0.00113519	-0.02110658	-0.00983241	0.00208601	
       456	-0.00725545	0.00273024	-0.00757757	0.00015329	
       457	-0.00628909	-0.00983241	-0.00693333	0.00369660	
       458	-0.01820751	-0.00339002	-0.00403426	0.00595144	
       459	-0.00532274	0.02399011	0.00176389	0.00466296	
       460	0.00047541	-0.00242366	0.00434084	0.00305236	
       461	-0.01015453	-0.00951029	0.00595144	0.00111965	
       462	0.00498508	-0.01691903	0.00788415	-0.00210154	
       463	0.02624495	-0.00661121	0.01013899	-0.00274578	
       464	0.02527859	0.00466296	0.00595144	-0.00016883	
       465	0.02205740	0.02302376	0.00788415	0.00144177	
       466	0.01046111	0.01948044	0.00498508	0.00144177	
       467	-0.02497201	0.02656707	0.00820627	-0.00306790	
       468	-0.01949598	-0.00306790	0.00562932	-0.00177943	
       469	0.00273024	-0.02561625	-0.00145731	-0.00242366	
       470	0.02334588	-0.03624618	-0.00725545	-0.00693333	
       471	0.01110534	-0.00306790	-0.00757757	-0.00500062	
       472	-0.01401996	0.03333157	-0.00886605	0.00015329	
       473	-0.00339002	0.02721131	-0.01144300	-0.00339002	
       474	0.00627356	0.01529289	-0.01112088	0.00337448	
       475	-0.00596698	0.00691779	-0.01015453	0.00369660	
       476	-0.03044804	0.01078323	-0.00725545	0.00176389	
       477	-0.03044804	0.01625925	-0.00339002	-0.00306790	
       478	-0.02110658	0.00659567	-0.00113519	-0.00306790	
       479	-0.01369784	-0.00242366	0.00079753	-0.00113519	
       480	-0.00628909	-0.00274578	0.00466296	0.00144177	
       481	0.00466296	-0.00628909	0.00852839	-0.00081307	
       482	0.01110534	-0.00854393	0.00723991	-0.00081307	
       483	0.01207170	0.00208601	0.00981687	-0.00113519	
       484	0.00047541	0.00144177	0.01110534	-0.00596698	
       485	-0.00371214	0.00691779	0.00627356	-0.00306790	
       486	-0.00081307	0.00788415	0.00788415	0.00047541	
       487	0.01142746	0.00723991	0.00466296	-0.00564486	
       488	0.00369660	-0.00532274	0.00208601	-0.00145731	
       489	0.00176389	-0.02529413	-0.00306790	0.00047541	
       490	-0.00564486	-0.02626049	-0.00467850	0.00144177	
       491	-0.00081307	-0.02658261	-0.00757757	0.00047541	
       492	0.00079753	-0.01208724	-0.00693333	0.00047541	
       493	-0.00628909	0.00852839	-0.01047664	0.00047541	
       494	-0.00113519	-0.01466419	-0.00983241	-0.00210154	
       495	0.00498508	-0.02593837	-0.01015453	0.00111965	
       496	0.00820627	0.00401872	-0.00564486	-0.00210154	
       497	0.01819197	0.00240812	-0.00532274	-0.00403426	
       498	0.01432654	-0.00467850	-0.00306790	0.00144177	
       499	0.00208601	0.02785555	0.00240812	0.00562932	
       500	-0.01047664	0.01948044	0.00627356	0.00208601	
       501	-0.01401996	0.01271594	0.00981687	0.00240812	
       502	-0.00500062	0.00498508	0.00885051	0.00788415	
       503	0.00337448	-0.00081307	0.00756203	0.01174958	
       504	0.00466296	-0.00403426	0.00852839	0.00337448	
       505	-0.00113519	-0.00210154	0.00530720	-0.00564486	
       506	-0.01401996	-0.00113519	0.00466296	-0.00661121	
       507	-0.01917386	-0.00016883	0.00562932	-0.00339002	
       508	-0.02658261	-0.00274578	0.00079753	-0.00242366	
       509	-0.02658261	-0.01240936	-0.00532274	-0.00500062	
       510	-0.01756327	-0.01079876	-0.00532274	-0.00371214	
       511	-0.02239506	-0.00596698	-0.00596698	0.00079753	
       512	-0.00145731	0.00144177	-0.00983241	0.00015329	
       513	0.00949475	0.00756203	-0.01208724	0.00659567	
       514	0.01722561	0.00981687	-0.01305360	0.01174958	
       515	0.03848548	0.01819197	-0.00886605	0.01046111	
       516	0.01786985	0.00659567	-0.00886605	0.00144177	
       517	0.00562932	0.00756203	-0.00564486	-0.00177943	
       518	0.01207170	0.00498508	-0.00306790	-0.00210154	
       519	0.03204310	-0.00822181	0.00369660	-0.00693333	
       520	0.02849978	-0.01530843	0.00434084	-0.00596698	
       521	0.00981687	-0.00886605	0.00917263	-0.00403426	
       522	0.00530720	-0.00435638	0.01110534	-0.00596698	
       523	0.00240812	-0.00628909	0.00981687	0.00111965	
       524	0.01754773	-0.00886605	0.00723991	-0.00145731	
       525	0.01142746	-0.01144300	0.00788415	-0.00049095	
       526	0.00756203	-0.00661121	0.00530720	-0.00339002	
       527	-0.00049095	-0.00274578	0.00498508	-0.00049095	
       528	-0.00951029	0.00401872	0.00337448	0.00273024	
       529	-0.01466419	0.00369660	-0.00145731	0.00562932	
       530	-0.00822181	-0.00403426	-0.00532274	0.00852839	
       531	-0.01047664	-0.00306790	-0.00854393	0.01174958	
       532	-0.01434208	-0.00016883	-0.01112088	0.00756203	
       533	-0.01144300	-0.00242366	-0.00951029	0.00015329	
       534	-0.00822181	-0.00274578	-0.01047664	-0.00467850	
       535	-0.00467850	0.00273024	-0.00725545	-0.00274578	
       536	-0.00274578	-0.00177943	-0.00983241	-0.00274578	
       537	-0.00306790	-0.00371214	-0.00725545	-0.00081307	
       538	0.00015329	-0.00339002	-0.00274578	-0.00081307	
       539	-0.00242366	-0.00306790	0.00111965	-0.00049095	
       540	-0.00210154	-0.00306790	0.00723991	-0.00210154	
       541	-0.00306790	0.00273024	0.01013899	-0.00113519	
       542	0.00144177	0.00337448	0.01174958	-0.00371214	
       543	-0.00016883	0.00369660	0.01110534	-0.00951029	
       544	-0.00822181	0.00562932	0.01078323	-0.00822181	
       545	0.00079753	0.00498508	0.00691779	-0.00596698	
       546	-0.00306790	0.00627356	0.00369660	0.00015329	
       547	-0.01208724	0.00723991	0.00434084	0.00079753	
       548	-0.01788539	-0.00049095	0.00144177	0.00079753	
       549	-0.01144300	0.00240812	-0.00113519	0.00498508	
       550	-0.00693333	-0.00467850	-0.00467850	0.00917263	
       551	-0.00435638	-0.00983241	-0.00886605	0.00756203	
       552	-0.00467850	-0.01144300	-0.00918817	0.00530720	
       553	-0.00306790	-0.00725545	-0.01112088	-0.00049095	
       554	-0.00532274	-0.00532274	-0.01112088	-0.00435638	
       555	0.00627356	-0.00339002	-0.01047664	-0.00016883	
       556	0.01207170	0.00337448	-0.00693333	-0.00016883	
       557	0.02399011	0.00691779	-0.00596698	0.00273024	
       558	0.02882190	0.01593713	0.00208601	0.00369660	
       559	0.01561501	0.01303806	0.00176389	-0.00016883	
       560	0.00788415	0.00756203	0.00659567	-0.00564486	
       561	-0.00564486	-0.00177943	0.00949475	-0.00306790	
       562	-0.00983241	-0.00467850	0.01110534	0.00756203	
       563	0.00176389	-0.00113519	0.01013899	0.00885051	
       564	-0.01112088	0.00079753	0.01078323	0.00273024	
       565	-0.03334711	-0.00177943	0.00756203	-0.00564486	
       566	-0.00757757	0.00015329	0.00562932	-0.00371214	
       567	-0.01498631	0.00208601	0.00530720	0.00208601	
       568	-0.02239506	0.00659567	0.00401872	-0.00113519	
       569	-0.00596698	0.00176389	-0.00274578	-0.00500062	
       570	0.00111965	-0.00693333	-0.00532274	-0.00113519	
       571	0.00015329	-0.00274578	-0.01047664	0.00240812	
       572	0.02205740	0.00498508	-0.00822181	-0.00016883	
       573	0.00240812	0.00852839	-0.00886605	0.00079753	
       574	0.00885051	0.00111965	-0.00886605	-0.00081307	
       575	0.00885051	-0.00339002	-0.01047664	0.00176389	
       576	-0.00564486	-0.00016883	-0.00822181	-0.00016883	
       577	-0.01047664	0.00305236	-0.00628909	0.00240812	
       578	0.00530720	-0.00145731	-0.00242366	-0.00049095	
       579	0.01207170	-0.00596698	0.00079753	-0.00113519	
       580	0.00498508	-0.00081307	0.00691779	-0.00306790	
       581	0.00466296	-0.00016883	0.00659567	0.00111965	
       582	0.00240812	-0.00500062	0.01239382	-0.00016883	
       583	0.00240812	-0.01208724	0.01078323	-0.00306790	
       584	0.00273024	-0.01369784	0.00885051	-0.00274578	
       585	0.00305236	-0.00500062	0.00852839	-0.00371214	
       586	0.00627356	-0.00242366	0.00659567	-0.00113519	
       587	0.00240812	-0.00145731	0.00434084	-0.00016883	
       588	-0.00564486	-0.00564486	-0.00049095	-0.00049095	
       589	-0.01949598	0.00595144	0.00240812	-0.01144300	
       590	0.00047541	0.01207170	-0.00596698	-0.00306790	
       591	0.00466296	0.01819197	-0.00886605	-0.00113519	
       592	0.02495647	0.01754773	-0.00918817	0.00240812	
       593	0.02205740	0.00756203	-0.00918817	0.00208601	
       594	0.01819197	0.00756203	-0.00918817	0.00015329	
       595	0.01948044	0.00659567	-0.01015453	-0.00145731	
       596	0.00627356	0.00111965	-0.00918817	-0.00564486	
       597	-0.00532274	-0.00113519	-0.00564486	-0.00435638	
       598	-0.01305360	0.00369660	-0.00371214	-0.00628909	
       599	-0.01015453	0.00240812	0.00305236	-0.00274578	
       600	0.01207170	-0.00177943	0.00434084	0.00111965	
       601	0.00240812	0.00015329	0.00723991	0.00627356	
       602	-0.01047664	0.00144177	0.01013899	0.00337448	
       603	-0.01369784	0.00369660	0.01046111	0.00337448	
       604	-0.01498631	0.00595144	0.01239382	0.00369660	
       605	-0.00789969	-0.00081307	0.00885051	-0.00210154	
       606	-0.00467850	-0.00403426	0.00659567	-0.00306790	
       607	-0.00177943	-0.00532274	0.00595144	-0.00339002	
       608	0.00015329	-0.00210154	0.00176389	-0.00081307	
       609	0.00176389	-0.00242366	-0.00371214	-0.00113519	
       610	-0.00016883	-0.00403426	-0.00532274	0.00401872	
       611	0.00240812	-0.00757757	-0.00983241	0.00949475	
       612	-0.00242366	-0.00210154	-0.00918817	0.01497078	
       613	-0.00725545	-0.00113519	-0.01144300	0.01046111	
       614	-0.01015453	0.00047541	-0.01401996	0.00466296	
       615	-0.01981810	0.00047541	-0.01176512	0.00273024	
       616	-0.03205863	0.00240812	-0.00854393	0.00305236	
       617	-0.03334711	-0.00242366	-0.00886605	-0.00242366	
       618	-0.01176512	-0.00757757	-0.00596698	-0.00306790	
       619	-0.00016883	-0.00403426	0.00015329	-0.00177943	
       620	0.01110534	0.00079753	0.00305236	-0.00467850	
       621	0.00659567	0.00208601	0.00723991	-0.00435638	
       622	-0.00596698	0.00273024	0.00820627	-0.00274578	
       623	-0.02110658	0.00466296	0.00756203	-0.00435638	
       624	-0.02078446	0.00337448	0.00981687	-0.00693333	
       625	-0.00242366	0.00434084	0.00756203	0.00015329	
       626	0.03429793	0.00337448	0.00981687	0.00756203	
       627	0.05298085	0.00273024	0.00337448	0.00498508	
       628	0.03912972	-0.00210154	0.00240812	-0.00306790	
       629	0.03300945	-0.00403426	-0.00274578	-0.00403426	
       630	0.01948044	-0.00596698	-0.00500062	-0.00306790	
       631	0.01013899	-0.00564486	-0.00757757	-0.00306790	
       632	-0.00306790	-0.00403426	-0.00822181	-0.00113519	
       633	-0.00306790	-0.00371214	-0.00983241	-0.00145731	
       634	-0.00854393	-0.00467850	-0.01015453	-0.00016883	
       635	-0.02368353	0.00111965	-0.00951029	0.00273024	
       636	-0.01981810	0.00434084	-0.00661121	0.00498508	
       637	-0.01047664	0.00144177	-0.00628909	0.00627356	
       638	-0.00983241	-0.00274578	-0.00242366	0.00369660	
       639	-0.01144300	-0.00564486	-0.00081307	0.00401872	
       640	-0.00403426	-0.00306790	0.00434084	0.00401872	
       641	0.00305236	0.00176389	0.00627356	0.00337448	
       642	-0.01788539	0.00015329	0.00981687	0.00079753	
       643	0.00981687	0.00144177	0.01110534	-0.00016883	
       644	0.03075462	0.00111965	0.01174958	-0.00596698	
       645	0.01722561	-0.00274578	0.01142746	-0.00628909	
       646	0.00434084	-0.00081307	0.00820627	-0.00403426	
       647	-0.00789969	0.00273024	0.00466296	-0.00306790	
       648	-0.00822181	0.00466296	0.00273024	0.00047541	
       649	-0.00113519	0.00562932	-0.00210154	-0.00210154	
       650	0.00852839	0.00111965	-0.00467850	-0.00596698	
       651	0.00466296	-0.00339002	-0.00661121	-0.00016883	
       652	0.01078323	-0.00725545	-0.01015453	0.00434084	
       653	0.01142746	-0.01208724	-0.01112088	-0.00145731	
       654	0.00176389	-0.00661121	-0.00886605	-0.00081307	
       655	-0.00274578	-0.00210154	-0.01208724	0.00079753	
       656	-0.01208724	-0.00016883	-0.01079876	0.00208601	
       657	-0.01112088	0.01400442	-0.00661121	0.00015329	
       658	-0.01401996	0.01883621	0.00079753	-0.00113519	
       659	-0.02142870	0.00885051	0.00144177	-0.00274578	
       660	-0.02014022	0.00273024	0.00498508	0.00111965	
       661	-0.01144300	-0.00371214	0.00723991	0.00273024	
       662	0.02237952	-0.00145731	0.01303806	-0.00242366	
       663	0.00659567	0.00401872	0.01271594	-0.00274578	
       664	-0.01627479	0.00111965	0.01110534	-0.00371214	
       665	-0.01852963	-0.00177943	0.00981687	-0.00306790	
       666	-0.01498631	-0.00822181	0.00659567	-0.00306790	
       667	-0.01530843	-0.01112088	0.00401872	-0.00306790	
       668	-0.02851532	-0.00951029	-0.00081307	0.00111965	
       669	-0.01852963	-0.00951029	-0.00532274	0.00337448	
       670	0.02978826	-0.01144300	-0.00822181	0.00337448	
       671	0.04267303	-0.00822181	-0.00854393	0.00273024	
       672	0.05233661	-0.00177943	-0.00789969	-0.00403426	
       673	0.02817766	0.01722561	-0.00854393	0.00015329	
       674	0.00562932	0.00981687	-0.00467850	0.00015329	
       675	0.00981687	-0.00628909	-0.01047664	0.00111965	
       676	0.01464866	-0.01659691	-0.00757757	0.00047541	
       677	0.00627356	-0.01466419	-0.01144300	0.00337448	
       678	0.00273024	-0.00757757	-0.00306790	0.01013899	
       679	-0.00532274	0.02270164	0.00144177	0.00820627	
       680	-0.01208724	0.03172098	0.00562932	0.00079753	
       681	-0.01949598	0.02270164	0.01174958	-0.00274578	
       682	-0.01144300	0.01593713	0.01239382	-0.00339002	
       683	-0.00725545	0.01271594	0.01013899	-0.00596698	
       684	-0.01047664	0.01271594	0.00756203	-0.00306790	
       685	-0.00854393	0.00627356	0.00852839	-0.00918817	
       686	-0.00113519	0.00111965	0.00723991	-0.00854393	
       687	-0.00242366	0.00176389	0.00434084	-0.01047664	
       688	0.00047541	-0.00049095	0.00240812	-0.00983241	
       689	0.00434084	-0.00435638	0.00273024	-0.00628909	
       690	-0.00016883	-0.00918817	-0.00081307	0.00111965	
       691	0.00015329	-0.00725545	-0.00532274	0.00337448	
       692	0.00111965	-0.00918817	-0.00789969	0.00176389	
       693	-0.00016883	-0.00725545	-0.01498631	-0.00274578	
       694	-0.00016883	-0.00596698	-0.02658261	-0.00145731	
       695	-0.00145731	-0.00628909	-0.04140009	-0.00081307	
       696	-0.00371214	-0.00435638	-0.03689042	0.00111965	
       697	-0.00661121	-0.00274578	-0.02207294	-0.00274578	
       698	-0.00725545	-0.00177943	-0.01208724	0.00015329	
       699	-0.00822181	-0.00242366	0.00369660	0.00562932	
       700	-0.00757757	-0.00210154	0.02205740	0.00981687	
       701	-0.00757757	-0.00210154	0.03494217	0.00595144	
       702	-0.00822181	-0.00339002	0.04396151	0.00015329	
       703	-0.00339002	-0.00564486	0.03397581	0.00079753	
       704	-0.00242366	-0.00532274	0.02205740	0.00208601	
       705	0.00401872	-0.00403426	0.01271594	0.00305236	
       706	0.02688919	-0.00210154	0.01174958	-0.00081307	
       707	0.02205740	-0.00435638	0.00530720	-0.00081307	
       708	0.00337448	-0.00500062	0.00273024	0.00176389	
       709	-0.00274578	-0.00403426	-0.00306790	0.00111965	
       710	-0.00500062	0.00144177	-0.00596698	-0.00049095	
       711	-0.01015453	-0.00049095	-0.00918817	-0.00661121	
       712	-0.00306790	-0.00016883	-0.01208724	-0.00564486	
       713	-0.00145731	-0.00145731	-0.01337572	0.00079753	
       714	0.00208601	-0.00177943	-0.01208724	0.00111965	
       715	0.00337448	-0.00339002	-0.01401996	0.00498508	
       716	-0.00306790	0.00240812	-0.01208724	0.00208601	
       717	-0.01724115	0.00498508	-0.00725545	0.00240812	
       718	-0.01273148	0.00627356	-0.00306790	0.00144177	
       719	-0.00918817	0.00498508	0.00047541	0.00079753	
       720	-0.00435638	0.00240812	0.00434084	-0.00339002	
       721	0.01174958	-0.00016883	0.00434084	-0.00725545	
       722	0.01948044	-0.00274578	0.00659567	-0.00789969	
       724	0.01786985	0.00079753	0.00691779	-0.00596698	
       725	0.02076892	0.00337448	0.00852839	-0.00500062	
       726	0.01239382	0.00079753	0.00852839	0.00015329	
       727	-0.00403426	-0.00081307	0.00401872	0.00756203	
       728	-0.02014022	0.00369660	0.00240812	0.01529289	
       729	-0.02658261	0.00788415	-0.00081307	0.00852839	
       730	-0.00467850	0.00659567	-0.00596698	0.00240812	
       730	-0.01498631	0.00240812	-0.00661121	-0.00113519	
       731	-0.01563055	-0.00113519	-0.00789969	-0.00242366	
       732	-0.02271718	0.00305236	-0.00983241	-0.00467850	
       733	-0.02078446	0.00176389	-0.01240936	-0.00403426	
       735	-0.01530843	0.00305236	-0.01176512	-0.00467850	
       736	-0.00757757	0.00369660	-0.01144300	-0.00467850	
       737	0.01142746	0.00111965	-0.00918817	-0.00177943	
       738	0.00337448	-0.00049095	-0.00661121	-0.00049095	
       739	-0.00016883	-0.00081307	-0.00242366	-0.00242366	
       740	0.00949475	-0.00016883	0.00208601	-0.00274578	
       741	0.00981687	0.00530720	0.00530720	0.00015329	
       742	0.00885051	0.00466296	0.00756203	-0.00145731	
       742	-0.00081307	0.00144177	0.01110534	-0.00306790	
       743	-0.00145731	0.00176389	0.01400442	0.00079753	
       744	-0.00274578	-0.00081307	0.01207170	0.00240812	
       745	0.02270164	-0.00210154	0.01046111	0.00047541	
       746	0.02205740	-0.00242366	0.00788415	0.00079753	
       747	0.01980256	-0.00661121	0.00369660	0.00144177	
       748	0.02076892	-0.00693333	0.00015329	0.00498508	
       749	0.02914402	0.00240812	-0.00081307	0.00273024	
       750	0.01948044	0.00176389	-0.00564486	0.00273024	
       751	-0.00049095	-0.00016883	-0.00725545	-0.00016883	
       752	-0.00886605	0.00015329	-0.00822181	0.00337448	
       753	-0.01112088	0.00144177	-0.00983241	0.00434084	
       754	-0.01756327	0.00240812	-0.01305360	0.00144177	
       755	-0.01401996	0.00240812	-0.01273148	-0.00177943	
       756	-0.00854393	0.00111965	-0.01047664	-0.00274578	
       757	-0.01112088	0.00530720	-0.00403426	-0.00177943	
       758	-0.01079876	0.00208601	-0.00210154	-0.00339002	
       759	-0.00500062	0.00047541	0.00176389	0.00273024	
       760	-0.00628909	-0.00049095	0.00434084	-0.00210154	
       761	-0.00661121	0.00015329	0.00788415	-0.00210154	
       762	0.00111965	-0.00145731	0.01110534	-0.00145731	
       763	-0.00049095	-0.00371214	0.01336018	0.00144177	
       764	-0.00339002	-0.00628909	0.01046111	0.00015329	
       765	-0.00145731	-0.00371214	0.00595144	0.00144177	
       766	-0.00661121	-0.00339002	0.00627356	0.00144177	
       767	-0.01369784	-0.00113519	0.00595144	0.00498508	
       768	-0.01466419	-0.00564486	0.00176389	0.01013899	
       769	-0.01176512	-0.01369784	-0.00435638	0.01207170	
       770	-0.00693333	-0.00822181	-0.00822181	0.00659567	
       771	0.01046111	-0.00628909	-0.00822181	-0.00049095	
       772	0.01786985	-0.00467850	-0.01079876	0.00208601	
       773	0.01819197	-0.00467850	-0.01273148	0.00723991	
       774	-0.00016883	-0.00242366	-0.01176512	0.00434084	
       775	0.00691779	0.00595144	-0.00918817	-0.00500062	
       776	0.01561501	-0.00016883	-0.00886605	-0.00886605	
       777	0.02753343	-0.00403426	-0.00564486	-0.00177943	
       778	0.01013899	-0.01401996	-0.00242366	-0.00306790	
       779	-0.01627479	-0.01208724	0.00079753	-0.00177943	
       780	-0.03785678	-0.00113519	0.00466296	-0.01208724	
       781	-0.04365492	0.00273024	0.00756203	-0.01466419	
       782	0.00273024	0.00498508	0.00852839	-0.01208724	
       783	0.02334588	0.02366799	0.00820627	-0.00435638	
       784	0.03172098	0.01174958	0.00723991	0.00434084	
       785	0.03365369	0.00981687	0.00885051	0.00691779	
       786	0.02914402	0.00627356	0.00434084	0.00691779	
       787	0.03784124	0.00885051	0.00337448	0.00369660	
       788	0.03687488	0.00691779	0.00401872	0.00305236	
       789	0.03912972	0.00273024	-0.00306790	-0.00242366	
       790	-0.02207294	0.00111965	-0.00596698	-0.00049095	
       791	-0.04880883	0.00079753	-0.00918817	0.00466296	
       792	-0.03560194	0.01303806	-0.00951029	-0.00113519	
       793	-0.03205863	0.01046111	-0.01047664	0.00015329	
       794	-0.04558764	-0.00371214	-0.01079876	0.00176389	
       795	-0.01595267	-0.01981810	-0.01369784	0.00337448	
       796	0.00015329	-0.02851532	-0.00693333	0.00305236	
       797	-0.00016883	-0.02400565	-0.00532274	0.00111965	
       798	-0.00789969	-0.01917386	-0.00306790	0.00111965	
       799	-0.01530843	0.01529289	0.00111965	-0.00177943	
       800	-0.00918817	0.04267303	0.00111965	-0.00081307	
       801	0.00047541	0.02044680	0.00981687	-0.00113519	
       802	0.02721131	0.00949475	0.01400442	-0.00500062	
       803	0.03494217	0.01207170	0.01400442	-0.01273148	
       804	0.01207170	0.01110534	0.00595144	-0.01724115	
       805	0.00788415	0.00917263	-0.00339002	-0.01240936	
       806	0.00885051	0.00273024	-0.00532274	-0.00339002	
       807	0.00337448	-0.00564486	-0.00049095	0.00562932	
       808	-0.00242366	-0.00435638	-0.00693333	0.00885051	
       809	-0.00306790	-0.00113519	-0.01401996	0.00659567	
       810	0.00659567	0.00434084	-0.01530843	0.00595144	
       811	0.02141316	-0.00145731	-0.01885174	0.00111965	
       812	0.01561501	-0.00435638	0.00659567	0.00015329	
       813	0.00756203	-0.00467850	0.02560071	-0.00564486	
       814	0.00208601	-0.00371214	0.00981687	-0.00628909	
       815	-0.00886605	-0.00789969	-0.00177943	-0.00210154	
       816	-0.02110658	-0.00210154	-0.00081307	0.00466296	
       817	-0.03850102	-0.00177943	-0.00177943	0.00240812	
       818	-0.03334711	-0.00693333	0.00015329	-0.00081307	
       819	-0.01434208	-0.00693333	0.00401872	-0.00532274	
       820	-0.00596698	-0.00661121	0.00562932	-0.00242366	
       821	-0.00403426	-0.00725545	0.01013899	0.00562932	
       822	0.01464866	-0.01112088	0.01174958	0.00401872	
       823	0.00176389	-0.00983241	0.01207170	0.00756203	
       824	-0.00725545	-0.00886605	0.00981687	0.00595144	
       825	-0.00822181	-0.00596698	0.01046111	0.00434084	
       826	-0.00693333	-0.00371214	0.00756203	0.00079753	
       827	-0.00145731	-0.00145731	0.00434084	-0.00049095	
       828	-0.00371214	0.00111965	0.00144177	-0.00339002	
       829	-0.00435638	0.00659567	-0.00242366	-0.00210154	
       830	-0.00467850	0.00401872	-0.00532274	-0.00403426	
       831	-0.00016883	0.00144177	-0.01208724	-0.00435638	
       832	-0.00177943	0.00079753	-0.01240936	-0.00371214	
       833	-0.00371214	0.00111965	-0.01498631	-0.00016883	
       834	-0.00113519	0.00047541	-0.01079876	0.00015329	
       835	-0.00274578	-0.00113519	-0.01112088	-0.00081307	
       836	-0.00693333	-0.00016883	-0.00886605	-0.00145731	
       837	-0.00757757	0.00273024	-0.00725545	-0.00145731	
       838	-0.00789969	0.00466296	-0.00500062	0.00240812	
       839	-0.00435638	0.00337448	0.00176389	0.00240812	
       840	-0.00532274	0.00079753	0.00434084	0.00305236	
       841	-0.00628909	0.00498508	0.01142746	0.00079753	
       842	-0.00757757	0.00208601	0.01078323	0.00337448	
       843	-0.00661121	0.00111965	0.01207170	-0.00016883	
       844	-0.00628909	0.00176389	0.01207170	-0.00371214	
       845	-0.00274578	-0.00049095	0.01110534	-0.00210154	
       846	-0.00177943	0.00047541	0.00788415	0.00047541	
       847	0.00176389	-0.00145731	0.00401872	0.00208601	
       848	0.00949475	-0.00210154	-0.00081307	-0.00145731	
       849	0.02044680	-0.00467850	-0.00500062	-0.00210154	
       850	0.00981687	-0.00661121	-0.00725545	0.00047541	
       851	0.00917263	-0.00757757	-0.01112088	0.00176389	
       852	0.01207170	-0.00918817	-0.01369784	0.00273024	
       853	0.01432654	-0.01047664	-0.01337572	-0.00177943	
       854	0.00852839	-0.00725545	-0.01305360	-0.00339002	
       855	0.01046111	-0.00274578	-0.01176512	-0.00177943	
       856	0.00949475	0.00595144	-0.01015453	-0.00435638	
       857	0.00498508	0.00401872	-0.00628909	-0.00145731	
       858	-0.00371214	0.00595144	-0.00306790	0.00015329	
       859	-0.02303929	0.01368230	0.00273024	-0.00016883	
       860	-0.00274578	0.01142746	0.00756203	-0.00210154	
       861	-0.00016883	0.00305236	0.00981687	0.00047541	
       862	-0.00242366	0.00144177	0.01046111	-0.00081307	
       863	0.00369660	-0.00081307	0.01303806	-0.00210154	
       864	0.00530720	0.00047541	0.01078323	-0.00210154	
       865	0.00562932	0.00176389	0.01013899	-0.00113519	
       866	0.00530720	0.00015329	0.00788415	-0.00113519	
       867	-0.00403426	0.00691779	0.00723991	-0.00177943	
       868	-0.00757757	0.00659567	0.00337448	-0.00242366	
       869	-0.01240936	0.00820627	0.00111965	-0.00145731	
       870	-0.01466419	0.00401872	-0.00596698	-0.00274578	
       871	-0.01724115	0.00208601	-0.00983241	-0.00177943	
       872	-0.01498631	0.00079753	-0.01208724	-0.00242366	
       873	-0.00596698	-0.00757757	-0.01208724	0.00079753	
       874	0.02205740	-0.01176512	-0.01144300	-0.00049095	
       875	0.05137025	-0.01595267	-0.00757757	-0.00145731	
       876	0.03816336	-0.02110658	-0.00822181	-0.00177943	
       877	0.01690349	-0.02368353	-0.00854393	0.00015329	
       878	-0.00532274	-0.02658261	-0.00532274	0.00305236	
       879	-0.03077016	-0.02883744	-0.00274578	0.00176389	
       880	-0.06137148	-0.01176512	-0.00145731	0.00208601	
       881	-0.07167930	0.01432654	0.00659567	0.00562932	
       882	-0.02432777	0.02495647	0.00949475	0.01142746	
       883	-0.03946738	0.02978826	0.01078323	0.01142746	
       884	-0.02142870	0.02946614	0.01078323	0.00530720	
       885	0.00562932	0.01400442	0.00852839	0.00176389	
       886	0.00111965	0.02044680	0.00434084	-0.00145731	
       887	0.03429793	0.01754773	0.00466296	-0.00145731	
       888	0.05233661	0.01303806	0.00015329	-0.00145731	
       889	0.05298085	0.01754773	-0.00177943	-0.00274578	
       890	0.04911542	0.01368230	-0.00371214	-0.01079876	
       891	0.03300945	0.00788415	-0.00435638	-0.01273148	
       892	0.01464866	-0.00049095	-0.00822181	-0.00435638	
       893	-0.00918817	-0.00210154	-0.01112088	0.00111965	
       894	-0.01434208	-0.01176512	-0.01434208	0.00401872	
       895	-0.01337572	-0.01595267	-0.01015453	0.00498508	
       896	0.00337448	-0.01563055	-0.00918817	0.00498508	
       897	0.01593713	-0.01208724	-0.00918817	-0.00500062	
       898	0.02302376	-0.01305360	-0.00339002	-0.00918817	
       899	0.03268733	-0.01691903	0.00273024	-0.01337572	
       900	0.01625925	-0.02142870	0.00659567	-0.01079876	
       901	0.00208601	-0.01144300	0.01078323	-0.00725545	
       902	-0.01079876	0.00240812	0.01400442	-0.00532274	
       903	-0.01917386	0.00337448	0.01271594	-0.00918817	
       904	0.01368230	0.00401872	0.00434084	-0.00403426	
       905	0.01303806	0.02302376	0.00691779	-0.00242366	
       906	0.02237952	0.02560071	0.00885051	0.00562932	
       907	0.02688919	0.01593713	0.00273024	0.01786985	
       908	0.01658137	0.00595144	0.00305236	0.02173528	
       909	0.00466296	0.00530720	0.00015329	0.01722561	
       910	-0.00467850	0.00111965	-0.00274578	0.00530720	
       911	-0.01917386	-0.00145731	-0.00725545	0.00079753	
       912	-0.01208724	0.00273024	-0.00951029	0.00176389	
       913	-0.03753466	0.00852839	-0.01176512	0.00079753	
       914	-0.04655400	0.00691779	-0.01273148	-0.00016883	
       915	-0.02593837	-0.00049095	-0.01112088	-0.00016883	
       916	-0.01852963	0.00111965	-0.00854393	-0.00371214	
       917	-0.01530843	-0.00435638	-0.00306790	-0.00177943	
       918	-0.00596698	-0.01015453	-0.00339002	0.00015329	
       919	0.00144177	-0.01369784	0.00047541	-0.00274578	
       920	0.00144177	-0.00886605	0.00530720	-0.00435638	
       921	-0.00757757	-0.00403426	0.00852839	-0.00403426	
       922	-0.00467850	0.00466296	0.01336018	-0.00339002	
       923	-0.00242366	0.00047541	0.01271594	-0.00177943	
       924	-0.01820751	0.00369660	0.01271594	0.00047541	
       925	-0.00822181	0.00144177	0.00756203	-0.00210154	
       926	-0.01079876	-0.00435638	0.00756203	-0.00339002	
       927	0.00208601	-0.01144300	0.00691779	-0.00339002	
       928	0.00144177	-0.01401996	0.00047541	-0.00371214	
       929	-0.00145731	-0.01305360	-0.00177943	-0.00081307	
       930	-0.01401996	-0.00886605	-0.00274578	0.00305236	
       931	-0.01949598	-0.00274578	-0.00918817	0.00176389	
       932	-0.01981810	0.00885051	-0.01047664	-0.00081307	
       933	0.00273024	0.01271594	-0.01112088	0.00208601	
       934	0.01948044	0.00337448	-0.00757757	-0.00081307	
       935	0.02624495	-0.00274578	-0.00725545	-0.00371214	
       936	0.01174958	-0.00403426	-0.01015453	-0.00049095	
       937	-0.00049095	-0.00500062	-0.01530843	0.00305236	
       938	-0.00789969	-0.00789969	-0.01563055	0.00498508	
       939	-0.01530843	-0.00371214	-0.00886605	0.00498508	
       940	-0.01112088	-0.00113519	-0.00532274	0.00176389	
       941	-0.00500062	-0.00049095	-0.00403426	0.00176389	
       942	0.00820627	-0.00113519	-0.00339002	0.00111965	
       943	0.01883621	0.00111965	-0.00274578	-0.00210154	
       944	0.01883621	-0.00016883	0.01529289	-0.00564486	
       945	0.01400442	-0.00016883	0.04782694	-0.00403426	
       946	0.00723991	0.00111965	0.03590853	-0.00467850	
       947	0.00369660	0.00305236	0.01497078	-0.00532274	
       948	0.00208601	0.00144177	0.00530720	-0.00467850	
       949	0.00079753	0.00079753	-0.00113519	-0.00242366	
       950	0.00498508	0.00079753	-0.00500062	-0.00177943	
       951	0.00079753	-0.00306790	-0.00725545	0.00079753	
       952	0.00305236	-0.00403426	-0.01047664	-0.00016883	
       953	-0.00113519	-0.00564486	-0.01176512	0.00273024	
       954	-0.00177943	-0.00500062	-0.01047664	0.00530720	
       955	0.00144177	-0.00628909	-0.01208724	0.00498508	
       956	0.00079753	-0.00596698	-0.00918817	0.00369660	
       957	-0.00177943	-0.00661121	-0.00789969	0.00337448	
       958	-0.00822181	-0.00371214	-0.00500062	0.00047541	
       959	-0.00628909	-0.00339002	-0.00049095	0.00144177	
       960	-0.00403426	-0.00306790	0.00434084	0.00434084	
       961	-0.00403426	-0.00210154	0.00659567	0.00369660	
       962	-0.00306790	0.00401872	0.01013899	-0.00081307	
       963	-0.00371214	0.00176389	0.01593713	-0.00210154	
       964	0.01207170	-0.00306790	0.01658137	-0.00242366	
       965	0.00530720	-0.00306790	0.01368230	-0.00016883	
       966	0.01078323	-0.00306790	0.01174958	0.00208601	
       967	0.01174958	-0.00145731	0.00111965	-0.00145731	
       968	0.00885051	-0.00500062	-0.02368353	-0.00339002	
       969	0.01561501	-0.00886605	-0.04784247	-0.00532274	
       970	0.00240812	-0.00274578	-0.05138579	-0.00500062	
       971	-0.02432777	0.00337448	-0.05879453	-0.00177943	
       972	-0.03817890	0.00273024	-0.06040512	0.00562932	
       973	-0.07006870	-0.00081307	-0.02948168	-0.00177943	
       974	-0.07103506	0.00723991	0.02399011	-0.00500062	
       975	-0.05428486	0.01207170	0.03429793	-0.00016883	
       976	-0.00822181	0.00981687	0.02946614	0.00047541	
       977	0.02237952	0.01013899	0.02914402	0.00144177	
       978	0.04782694	0.01432654	0.03172098	0.00756203	
       979	0.05652416	0.00949475	0.03784124	0.00756203	
       980	0.05330297	0.00949475	0.02721131	0.00498508	
       981	0.05330297	0.00756203	0.01754773	0.00369660	
       982	0.04009608	0.00273024	0.01336018	-0.00016883	
       983	0.02012468	-0.00016883	0.01271594	-0.00339002	
       984	0.01400442	0.00240812	0.01851409	-0.00467850	
       985	0.01368230	0.00434084	0.01883621	-0.00435638	
       986	0.00917263	0.00111965	0.01207170	-0.00113519	
       987	0.00144177	0.00015329	0.00530720	0.00273024	
       988	0.00240812	-0.00403426	-0.00081307	0.00530720	
       989	0.00015329	-0.00822181	-0.00467850	0.00434084	
       990	-0.01466419	-0.00596698	-0.00951029	-0.00016883	
       991	0.00144177	-0.00757757	-0.01240936	-0.00339002	
       992	-0.02690473	0.00466296	-0.01498631	-0.00339002	
       993	-0.03238075	0.00273024	-0.01401996	-0.00145731	
       994	-0.01208724	-0.00274578	-0.01627479	0.00208601	
       995	-0.00789969	0.00434084	-0.01885174	0.00562932	
       996	0.01303806	0.01271594	-0.01627479	0.00273024	
       997	0.01046111	-0.00210154	-0.01240936	0.00047541	
       998	0.01013899	-0.00693333	-0.00918817	-0.00306790	
       999	0.00434084	-0.00661121	-0.00564486	-0.00274578	
      1000	0.00369660	-0.00049095	-0.00339002	-0.00210154	
      1001	-0.01724115	0.01013899	0.00208601	0.00111965	
      1002	-0.02175082	0.01915833	0.00337448	0.00079753	
      1003	-0.02948168	0.01400442	0.00562932	-0.00532274	
      1004	-0.00951029	-0.00339002	0.00691779	-0.00757757	
      1005	0.00401872	-0.01144300	0.00047541	-0.00274578	
      1006	0.00595144	-0.01659691	0.00208601	0.00079753	
      1007	0.01142746	-0.01305360	0.00176389	-0.00113519	
      1008	0.00498508	-0.01079876	-0.00242366	-0.00564486	
      1009	-0.01949598	-0.00564486	-0.00628909	-0.00371214	
      1010	-0.04784247	0.00240812	-0.00822181	-0.00435638	
      1011	-0.05203002	0.01239382	-0.01047664	-0.00049095	
      1012	-0.02690473	0.01497078	-0.00983241	0.00047541	
      1013	-0.01337572	0.01110534	-0.00854393	0.00627356	
      1014	0.01915833	0.00949475	-0.01176512	0.00498508	
      1015	0.03751912	0.00530720	-0.01112088	0.00466296	
      1016	0.01948044	-0.00113519	-0.00693333	-0.00242366	
      1017	0.00949475	-0.00049095	-0.00661121	0.00047541	
      1018	0.00885051	-0.00242366	-0.00210154	0.00015329	
      1019	0.01078323	-0.00339002	0.00369660	-0.00210154	
      1020	0.00885051	-0.00532274	0.00788415	0.00369660	
      1021	0.00015329	-0.00306790	0.00852839	-0.00145731	
      1022	-0.00177943	-0.00339002	0.01271594	0.00111965	
      1023	-0.00049095	-0.00113519	0.01239382	0.00047541	
      1024	0.00852839	-0.00306790	0.01239382	-0.00049095	
      1025	-0.00016883	0.00047541	0.01013899	-0.00274578	
      1026	-0.00435638	0.00434084	0.01013899	-0.00145731	
      1027	0.00079753	0.00176389	0.00820627	-0.00306790	
      1028	0.00434084	-0.00403426	0.00208601	-0.00081307	
      1029	0.00305236	-0.00371214	-0.00242366	0.00273024	
      1030	0.00273024	-0.00532274	-0.00467850	-0.00145731	
      1031	-0.00339002	0.00144177	-0.00951029	0.00176389	
      1032	0.00079753	-0.00274578	-0.00918817	0.00111965	
      1033	0.00144177	-0.00661121	-0.00918817	0.00111965	
      1034	0.00466296	-0.00467850	-0.01112088	-0.00467850	
      1035	0.00466296	-0.00854393	-0.01144300	-0.00467850	
      1036	0.00723991	-0.00951029	-0.00918817	-0.00564486	
      1037	0.00240812	-0.00693333	-0.00886605	-0.00145731	
      1038	-0.00210154	-0.00403426	-0.00113519	0.00466296	
      1039	-0.00628909	-0.00467850	0.00273024	0.00305236	
      1040	0.00079753	-0.01144300	0.00466296	-0.00081307	
      1041	0.00788415	-0.01981810	0.00691779	-0.00049095	
      1042	0.00562932	-0.01981810	0.01110534	-0.00403426	
      1043	-0.00145731	-0.01627479	0.01013899	-0.00210154	
      1044	-0.00725545	-0.00854393	0.01110534	-0.00016883	
      1045	-0.00725545	0.01239382	0.01239382	-0.00145731	
      1046	-0.00693333	0.03719700	0.00756203	-0.00145731	
      1047	-0.00628909	0.03848548	0.00369660	0.00273024	
      1048	0.00047541	0.01529289	0.00240812	-0.00016883	
      1049	-0.00274578	0.00498508	-0.00081307	0.00079753	
      1050	-0.00500062	0.00401872	-0.00403426	-0.00049095	
      1051	-0.00822181	0.00723991	-0.00789969	0.00047541	
      1052	-0.00693333	0.00144177	-0.00951029	0.00208601	
      1053	-0.00049095	0.00047541	-0.01144300	0.00111965	
      1054	-0.00081307	0.00208601	-0.00854393	0.00208601	
      1055	-0.00306790	0.00208601	-0.00918817	0.00111965	
      1056	-0.00210154	0.00015329	-0.00789969	0.00144177	
      1057	0.00079753	-0.00113519	-0.00532274	0.00240812	
      1058	0.00015329	-0.00081307	-0.00242366	0.00111965	
      1059	-0.00113519	0.00337448	0.00530720	-0.00081307	
      1060	0.00047541	0.00723991	0.00466296	-0.00145731	
      1061	0.00434084	0.00111965	0.00788415	-0.00016883	
      1062	0.00820627	-0.00661121	0.00852839	0.00144177	
      1063	0.00981687	-0.00886605	0.01046111	-0.00049095	
      1064	0.00885051	-0.00886605	0.01110534	-0.00177943	
      1065	-0.00242366	-0.00500062	0.00723991	-0.00145731	
      1066	-0.00371214	-0.00306790	0.00820627	0.00047541	
      1067	-0.00210154	0.00079753	0.01046111	-0.00016883	
      1068	-0.00049095	-0.00113519	-0.00532274	0.00015329	
      1069	-0.00467850	-0.00113519	-0.00596698	-0.00274578	
      1070	-0.00789969	-0.00532274	-0.00854393	-0.00274578	
      1071	-0.00628909	-0.00596698	-0.01079876	-0.00177943	
      1072	-0.00242366	-0.00532274	-0.01273148	-0.00210154	
      1073	-0.00628909	-0.00822181	-0.01273148	-0.00016883	
      1074	-0.00532274	-0.01466419	-0.01208724	0.00240812	
      1075	0.00079753	-0.01595267	-0.01144300	0.00369660	
      1076	0.00240812	-0.00951029	-0.00789969	0.00015329	
      1077	0.01013899	-0.00210154	-0.00339002	-0.00016883	
      1078	0.01110534	0.00144177	-0.00177943	0.00015329	
      1079	0.01046111	0.02076892	0.00434084	0.00079753	
      1080	-0.00145731	0.01851409	0.00723991	-0.00016883	
      1081	0.00111965	0.01368230	0.01013899	-0.00145731	
      1082	0.00337448	0.00659567	0.01174958	-0.00177943	
      1083	0.00466296	0.01368230	0.01174958	0.00144177	
      1084	0.01625925	0.00273024	0.01271594	0.00305236	
      1085	0.02560071	-0.00177943	0.01078323	0.00208601	
      1086	0.04975965	-0.00113519	0.00723991	0.00111965	
      1087	0.03687488	-0.00306790	0.00562932	-0.00081307	
      1088	0.00917263	0.00047541	0.00208601	-0.00113519	
      1089	-0.03109228	0.00144177	-0.00339002	-0.00113519	
      1090	-0.04816459	0.00305236	-0.00467850	-0.00081307	
      1091	-0.04043373	-0.00113519	-0.00854393	-0.00435638	
      1092	-0.03109228	0.00466296	-0.00983241	-0.00661121	
      1093	-0.06265996	0.00659567	-0.01079876	-0.00693333	
      1095	-0.04719824	-0.00435638	-0.01273148	-0.00822181	
      1096	-0.03527983	-0.01337572	-0.01273148	-0.00628909	
      1097	-0.02142870	-0.01820751	-0.01015453	-0.00693333	
      1098	-0.01337572	-0.01530843	-0.00467850	-0.00016883	
      1099	-0.00854393	-0.01949598	-0.00371214	-0.00435638	
      1100	-0.00145731	-0.02561625	-0.00049095	-0.00500062	
      1100	0.05072601	-0.02303929	0.00530720	-0.01240936	
      1101	0.03719700	-0.01691903	0.00756203	-0.00403426	
      1102	0.03268733	-0.01112088	0.01046111	0.00015329	
      1103	0.03880760	-0.00081307	0.01400442	-0.00049095	
      1104	0.00079753	0.00723991	0.00981687	0.00401872	
      1105	-0.02851532	0.04009608	0.00917263	0.01690349	
      1107	-0.01563055	0.04879330	0.00820627	0.03139886	
      1108	0.04363939	0.03784124	0.00691779	0.02495647	
      1109	0.05587992	0.02141316	0.00369660	0.00691779	
      1110	0.02753343	-0.00177943	-0.00177943	-0.00403426	
      1111	0.03945184	-0.00789969	-0.00306790	-0.00628909	
      1112	0.01754773	-0.00049095	-0.00951029	0.00820627	
      1113	0.01625925	-0.01208724	-0.00983241	0.01271594	
      1114	0.00047541	-0.01724115	-0.01240936	0.01110534	
      1115	0.00820627	-0.01595267	-0.01273148	0.00981687	
      1116	0.01174958	0.02141316	-0.01563055	0.00659567	
      1116	0.01400442	0.02431223	-0.01466419	0.00240812	
      1117	0.01207170	-0.01756327	-0.00918817	-0.00274578	
      1118	-0.01208724	0.01013899	-0.00081307	-0.00628909	
      1119	-0.02722684	0.01464866	0.00111965	-0.00371214	
      1120	-0.02915956	0.00498508	0.00530720	-0.00177943	
      1121	-0.03334711	-0.00789969	0.00852839	-0.00371214	
      1122	-0.02432777	-0.00661121	0.00981687	-0.00467850	
      1123	-0.01401996	0.01786985	0.00917263	-0.00725545	
      1124	-0.00789969	0.02495647	0.01013899	-0.00757757	
      1125	-0.00596698	0.02817766	0.01013899	-0.00628909	
      1126	-0.00306790	0.01303806	0.01013899	-0.00435638	
      1127	-0.00081307	0.00530720	0.00788415	-0.00500062	
      1128	-0.00918817	0.00788415	0.00240812	-0.00210154	
      1129	-0.00725545	0.00659567	-0.00016883	-0.00274578	
      1130	-0.00435638	-0.00983241	-0.00596698	-0.00177943	
      1131	-0.00822181	-0.02078446	-0.00983241	-0.00339002	
      1132	-0.02014022	-0.00983241	-0.00725545	-0.00177943	
      1133	-0.04462128	-0.00274578	-0.01079876	-0.00371214	
      1134	-0.04268857	-0.00177943	-0.01208724	-0.00435638	
      1135	-0.02464989	-0.01273148	-0.01047664	0.00111965	
      1136	-0.00274578	-0.01563055	-0.00951029	0.00273024	
      1137	0.01786985	-0.01820751	-0.00403426	0.00047541	
      1138	0.03623065	-0.01401996	-0.00467850	0.00273024	
      1139	0.02495647	-0.00789969	0.00240812	0.00337448	
      1140	0.01013899	-0.00306790	0.00337448	0.00401872	
      1141	0.03494217	0.00273024	0.00756203	-0.00145731	
      1142	0.01658137	-0.00145731	0.00981687	-0.00854393	
      1143	-0.02014022	-0.00951029	0.01239382	-0.01949598	
      1144	-0.02497201	-0.00693333	0.01110534	-0.01144300	
      1145	-0.00596698	-0.00628909	0.00788415	-0.00822181	
      1146	-0.02819320	-0.00113519	0.00498508	0.00111965	
      1147	-0.04590976	-0.00628909	0.00401872	-0.00113519	
      1148	0.00885051	-0.00371214	-0.00177943	-0.00081307	
      1149	0.02109104	0.00659567	-0.00049095	-0.00306790	
      1150	0.00723991	0.01368230	-0.00306790	-0.00113519	
      1151	0.01239382	0.00498508	-0.00951029	0.00047541	
      1152	0.00852839	0.00369660	-0.01337572	0.00111965	
      1153	0.00949475	-0.00210154	-0.01176512	0.00015329	
      1154	0.01110534	-0.00306790	-0.01273148	-0.00210154	
      1155	0.00820627	-0.00467850	-0.01305360	-0.00081307	
      1156	0.01110534	-0.00596698	-0.01015453	0.00240812	
      1157	0.00820627	-0.00081307	-0.00596698	0.00595144	
      1158	0.00401872	0.00337448	-0.00210154	0.00627356	
      1159	0.01722561	-0.00113519	-0.00145731	0.01078323	
      1160	-0.00371214	-0.00500062	0.00434084	0.00530720	
      1161	-0.02658261	-0.00532274	0.00981687	-0.00177943	
      1162	-0.02593837	0.00144177	0.01110534	-0.00210154	
      1163	0.01336018	-0.00049095	0.01239382	-0.00210154	
      1164	0.00498508	-0.00306790	0.00852839	-0.00242366	
      1165	-0.00016883	-0.00306790	0.00885051	-0.00403426	
      1166	0.00176389	-0.00661121	0.00498508	-0.00467850	
      1167	0.00273024	-0.00596698	0.00079753	-0.00306790	
      1168	0.00434084	-0.00306790	-0.00274578	-0.00306790	
      1169	0.00273024	-0.00628909	-0.00467850	-0.00339002	
      1170	0.00434084	-0.00371214	-0.00951029	0.00047541	
      1171	0.00015329	-0.00339002	-0.00725545	0.00047541	
      1172	0.00337448	-0.00306790	-0.01047664	0.00305236	
      1173	0.00079753	-0.00210154	-0.00822181	0.00917263	
      1174	0.00111965	-0.00242366	-0.01047664	0.00627356	
      1175	0.00144177	-0.00081307	-0.00983241	0.00144177	
      1176	0.00047541	0.00015329	-0.00951029	0.00305236	
      1177	-0.00016883	-0.00177943	-0.00628909	0.00111965	
      1178	0.00176389	-0.00049095	-0.00242366	0.00595144	
      1179	-0.00016883	0.00047541	0.00079753	0.00498508	
      1180	-0.00596698	0.00079753	0.01013899	0.00305236	
      1181	-0.00918817	0.00079753	0.01013899	-0.00274578	
      1182	-0.01079876	0.00176389	0.01207170	-0.00467850	
      1183	-0.01047664	-0.00210154	0.01336018	-0.00081307	
      1184	-0.00596698	-0.00628909	0.01142746	0.00111965	
      1185	-0.01756327	0.00401872	0.01207170	0.00273024	
      1186	-0.00306790	0.00562932	0.01013899	-0.00177943	
      1187	0.00530720	-0.00049095	0.00659567	0.00111965	
      1188	0.01142746	-0.00049095	0.00240812	-0.00274578	
      1189	0.00788415	0.00176389	-0.00371214	0.00015329	
      1190	0.00273024	0.00176389	-0.00693333	0.00144177	
      1191	-0.01852963	-0.00113519	-0.00886605	0.00176389	
      1192	-0.02819320	-0.00113519	-0.01208724	-0.00081307	
      1193	-0.02819320	-0.00145731	-0.01112088	-0.00339002	
      1194	-0.00628909	-0.00016883	-0.01144300	-0.00628909	
      1195	0.00079753	-0.00403426	-0.01176512	-0.00016883	
      1196	0.01207170	0.00240812	-0.00725545	0.00337448	
      1197	0.02656707	0.00627356	-0.00564486	0.00111965	
      1198	0.03526429	0.00015329	-0.00210154	-0.00081307	
      1199	0.05169237	-0.00177943	0.00208601	0.00240812	
      1200	0.06103383	0.00723991	0.00498508	0.00498508	
      1201	0.03655277	0.00659567	0.00852839	0.00691779	
      1202	0.00723991	0.00627356	0.01013899	0.00820627	
      1203	0.00208601	-0.00274578	0.00949475	0.00562932	
      1204	0.00691779	-0.01337572	0.01142746	0.00144177	
      1205	-0.00177943	-0.01852963	0.00820627	-0.00403426	
      1206	0.00466296	-0.02400565	0.00401872	-0.00403426	
      1207	0.00240812	-0.02851532	0.00434084	-0.00371214	
      1208	-0.00500062	-0.01756327	0.00144177	-0.00596698	
      1209	-0.01466419	0.00498508	0.00111965	-0.00435638	
      1210	-0.06878022	0.03719700	0.00047541	-0.00403426	
      1211	-0.01627479	0.04524999	-0.00693333	-0.00500062	
      1212	-0.00661121	0.04138455	-0.01305360	-0.00757757	
      1213	0.00144177	0.03204310	-0.02271718	-0.00467850	
      1214	0.01432654	0.02527859	-0.03560194	-0.00500062	
      1215	0.00530720	0.01754773	-0.04236645	0.00015329	
      1216	-0.01595267	0.01303806	-0.01852963	-0.00500062	
      1217	-0.02046234	0.00981687	-0.00049095	-0.00500062	
      1218	-0.02046234	0.00498508	-0.00016883	0.00079753	
      1219	-0.00371214	-0.00371214	0.00788415	-0.00145731	
      1220	-0.01595267	-0.01079876	0.02817766	-0.00339002	
      1221	-0.03882314	-0.01595267	0.03816336	-0.00049095	
      1222	-0.04719824	-0.02400565	0.04106243	-0.00371214	
      1223	-0.04913095	-0.02561625	0.02431223	0.00047541	
      1224	-0.04719824	-0.01530843	0.01593713	0.00144177	
      1225	-0.03012592	0.00208601	0.00820627	0.00305236	
      1226	-0.01595267	0.01400442	0.00756203	0.00691779	
      1227	0.02978826	0.01174958	0.00144177	0.00756203	
      1228	0.04363939	0.01948044	-0.00049095	0.00627356	
      1229	0.06876469	0.02785555	-0.00081307	0.00273024	
      1230	0.06973105	0.01754773	-0.00210154	0.00208601	
      1231	0.05555780	0.00852839	-0.00757757	0.00434084	
      1232	0.04074032	-0.00210154	-0.01401996	0.00047541	
      1233	0.01883621	-0.01144300	-0.01852963	-0.00210154	
      1234	0.01142746	-0.01627479	-0.01885174	-0.00177943	
      1235	0.00723991	-0.01144300	-0.01563055	0.00562932	
      1236	0.00820627	-0.01079876	-0.01047664	0.00208601	
      1237	-0.00081307	-0.00564486	-0.01015453	-0.00081307	
      1238	0.00401872	-0.00371214	-0.00500062	-0.00532274	
      1239	-0.04236645	-0.00145731	-0.00242366	-0.00435638	
      1240	-0.02722684	-0.00596698	0.00111965	-0.00403426	
      1241	-0.01498631	-0.00596698	0.00627356	-0.00628909	
      1242	-0.01337572	-0.00339002	0.00788415	-0.01079876	
      1243	-0.00693333	-0.00628909	0.00723991	-0.01273148	
      1244	0.00756203	-0.00210154	0.00756203	-0.00628909	
      1245	-0.00918817	-0.00145731	0.00949475	0.00015329	
      1246	-0.01337572	-0.00145731	0.00691779	0.00691779	
      1247	-0.01240936	-0.00177943	0.00369660	0.00273024	
      1248	-0.01240936	-0.00242366	-0.00210154	0.00047541	
      1249	-0.00661121	-0.00628909	-0.00467850	0.00273024	
      1250	-0.00628909	-0.00661121	-0.00467850	0.00820627	
      1251	0.00627356	-0.00661121	-0.00854393	0.01046111	
      1252	0.00723991	-0.00596698	-0.00918817	0.00595144	
      1253	0.00369660	-0.00435638	-0.01208724	0.00176389	
      1254	-0.00016883	-0.00628909	-0.01337572	-0.00339002	
      1255	0.00079753	-0.00210154	-0.01015453	-0.00500062	
      1256	-0.00339002	0.00240812	-0.00628909	-0.00339002	
      1257	-0.01917386	0.00047541	-0.00725545	0.00079753	
      1258	-0.00983241	0.00144177	-0.00403426	0.00530720	
      1259	-0.02819320	-0.00049095	0.00111965	0.00434084	
      1260	-0.03270287	-0.00661121	0.00562932	0.00144177	
      1261	-0.00951029	-0.00628909	0.00820627	-0.00210154	
      1262	-0.00242366	-0.00757757	0.00852839	-0.00789969	
      1263	-0.00113519	-0.00693333	0.01207170	-0.00177943	
      1264	0.00111965	-0.00500062	0.01013899	-0.00177943	
      1265	-0.00113519	-0.00113519	0.01013899	0.00240812	
      1266	-0.00339002	-0.00145731	0.00627356	0.00111965	
      1267	0.01432654	-0.00274578	0.00530720	-0.00306790	
      1268	0.01207170	-0.00113519	0.00047541	-0.00339002	
      1269	0.00434084	-0.00113519	-0.00081307	-0.00210154	
      1270	0.00305236	-0.00113519	-0.00435638	-0.00371214	
      1271	0.00111965	-0.00049095	-0.00661121	-0.00274578	
      1272	0.00369660	0.00530720	-0.00596698	-0.00016883	
      1273	0.00015329	0.00434084	-0.01015453	-0.00145731	
      1274	0.00111965	0.00240812	-0.01112088	-0.00113519	
      1275	0.02302376	-0.00435638	-0.00983241	-0.00306790	
      1276	0.00981687	-0.00339002	-0.00951029	-0.00210154	
      1277	0.00111965	0.00176389	-0.00854393	-0.00403426	
      1278	0.00756203	0.00498508	-0.00274578	-0.00306790	
      1279	0.00820627	0.00015329	-0.00081307	-0.00016883	
      1280	0.00401872	0.00015329	0.00401872	0.00337448	
      1281	0.00305236	-0.00113519	0.00852839	0.00434084	
      1282	0.00079753	-0.00177943	0.01013899	0.00208601	
      1283	-0.00210154	-0.00210154	0.00885051	0.00111965	
      1284	-0.00049095	-0.00306790	0.00917263	-0.00049095	
      1285	-0.00628909	0.00015329	0.00595144	-0.00113519	
      1286	-0.01015453	0.00401872	0.00434084	0.00337448	
      1287	0.00208601	0.00756203	0.00595144	0.00434084	
      1288	0.01303806	0.01464866	0.00498508	0.00047541	
      1289	0.01110534	0.00820627	-0.00274578	-0.00049095	
      1290	0.00885051	0.00176389	-0.00403426	-0.00306790	
      1291	0.00466296	-0.00081307	-0.00822181	-0.00403426	
      1292	0.01271594	-0.00242366	-0.00886605	-0.00661121	
      1293	0.01851409	-0.00757757	-0.01079876	-0.00339002	
      1294	0.01271594	-0.00854393	-0.01079876	0.00176389	
      1295	0.01819197	-0.01079876	-0.01273148	0.00369660	
      1296	0.01239382	-0.01047664	-0.01112088	0.00240812	
      1297	-0.00145731	-0.00693333	-0.00757757	0.00434084	
      1298	-0.01595267	-0.00500062	-0.00274578	0.00498508	
      1299	-0.02819320	-0.00854393	0.00079753	0.00111965	
      1300	-0.04140009	-0.00854393	0.00691779	-0.00306790	
      1301	0.00595144	-0.01563055	0.00917263	-0.00532274	
      1302	-0.00049095	-0.00886605	0.00885051	-0.00596698	
      1303	0.00208601	-0.00306790	0.00885051	-0.00210154	
      1304	0.01851409	0.01432654	0.01271594	0.00466296	
      1305	0.01368230	0.02688919	0.01239382	-0.00145731	
      1306	-0.04236645	0.01336018	0.01013899	-0.00210154	
      1307	-0.03366923	0.00627356	0.00369660	-0.00113519	
      1308	-0.02883744	0.01690349	0.00176389	0.00305236	
      1309	-0.02722684	0.02141316	0.00144177	0.00466296	
      1310	-0.01691903	0.01690349	-0.00435638	-0.00274578	
      1311	-0.01208724	0.02978826	-0.00789969	-0.00532274	
      1312	0.01336018	0.03107674	-0.00951029	-0.00854393	
      1313	0.00176389	0.01690349	-0.01273148	-0.00789969	
      1314	-0.00145731	0.00949475	-0.01595267	-0.00306790	
      1315	0.00530720	0.00305236	-0.01369784	0.00466296	
      1316	0.01174958	0.00111965	-0.00918817	0.00788415	
      1317	0.00917263	-0.00016883	-0.00242366	0.00627356	
      1318	0.00981687	-0.00274578	0.00079753	-0.00016883	
      1319	0.00691779	-0.00725545	0.00627356	-0.00339002	
      1320	0.00240812	-0.00757757	0.00627356	-0.00242366	
      1321	-0.00725545	-0.00725545	0.00756203	-0.00596698	
      1322	-0.01756327	-0.00661121	0.01046111	-0.00274578	
      1323	-0.00983241	-0.00789969	0.00917263	-0.00210154	
      1324	0.00659567	-0.00725545	0.00981687	0.00401872	
      1325	0.00047541	-0.00049095	0.01110534	0.00273024	
      1326	-0.01112088	0.00273024	0.00820627	0.00144177	
      1327	-0.00596698	-0.00049095	0.00401872	0.00208601	
      1328	0.01207170	-0.00918817	0.00015329	0.00401872	
      1329	0.01271594	-0.00789969	-0.00500062	-0.00049095	
      1330	0.01722561	-0.00081307	-0.00467850	-0.00435638	
      1331	0.02076892	0.00595144	-0.00725545	-0.00532274	
      1332	0.01432654	0.00111965	-0.00918817	-0.00564486	
      1333	0.01207170	-0.00049095	-0.01079876	-0.00274578	
      1334	0.01174958	-0.00725545	-0.01176512	0.00820627	
      1335	0.03300945	-0.01144300	-0.01047664	0.01078323	
      1336	0.02914402	-0.00693333	-0.00435638	0.00240812	
      1337	0.01464866	-0.00564486	-0.00339002	0.00466296	
      1338	0.00530720	-0.00693333	-0.00177943	0.00047541	
      1339	0.00885051	-0.00983241	0.00176389	0.00144177	
      1340	0.00305236	-0.00725545	0.00498508	-0.00081307	
      1341	0.02173528	0.00111965	0.00820627	0.00401872	
      1342	0.03655277	0.00273024	0.01046111	0.00337448	
      1343	0.02656707	0.00337448	0.01239382	0.00240812	
      1344	0.00820627	-0.00145731	0.00723991	0.00144177	
      1345	-0.00500062	-0.00113519	0.00885051	0.00691779	
      1346	0.00079753	0.00434084	0.00627356	-0.00113519	
      1347	-0.02497201	0.00530720	0.00562932	-0.00371214	
      1348	-0.03334711	0.00305236	-0.00016883	-0.00564486	
      1349	-0.01756327	-0.00113519	-0.00274578	-0.00016883	
      1350	-0.01595267	-0.00274578	-0.00532274	-0.00016883	
      1351	-0.01144300	-0.00467850	-0.01144300	-0.00339002	
      1352	-0.01466419	-0.00789969	-0.01434208	-0.00918817	
      1353	-0.01659691	-0.00693333	-0.00564486	-0.01369784	
      1354	-0.02626049	-0.01176512	-0.00403426	-0.00628909	
      1355	-0.02078446	-0.01176512	-0.00628909	-0.00500062	
      1356	-0.02014022	-0.01563055	-0.01305360	-0.00177943	
      1357	-0.02432777	-0.00628909	-0.02175082	0.01046111	
      1358	-0.02046234	0.01497078	-0.02529413	0.01207170	
      1359	-0.01498631	0.00756203	-0.03689042	0.00595144	
      1360	-0.01530843	0.00176389	-0.03141439	0.00337448	
      1361	-0.00725545	0.00434084	-0.02110658	0.00144177	
      1362	-0.00661121	0.00562932	-0.00886605	0.00208601	
      1363	-0.00403426	0.00595144	0.01239382	-0.00049095	
      1364	0.00337448	0.00466296	0.06006747	0.00079753	
      1365	0.00723991	0.00111965	0.06908681	-0.00049095	
      1366	0.01625925	-0.00145731	0.05620204	-0.00274578	
      1367	0.01529289	0.00047541	0.03236521	-0.00274578	
      1368	0.00981687	-0.00016883	0.01046111	0.00144177	
      1369	-0.00049095	0.00015329	0.00176389	-0.00016883	
      1370	0.00498508	0.00240812	-0.00081307	-0.00628909	
      1371	0.01722561	0.00723991	-0.00693333	-0.00500062	
      1372	0.01271594	0.00369660	-0.00854393	-0.00177943	
      1373	0.00723991	0.00047541	-0.01434208	-0.00113519	
      1374	0.00401872	-0.00339002	-0.01401996	-0.00371214	
      1375	0.00337448	-0.00403426	-0.01401996	-0.00500062	
      1376	0.00208601	0.00111965	-0.01240936	-0.00081307	
      1377	-0.02110658	-0.00435638	0.00079753	0.00305236	
      1378	-0.00596698	0.00079753	-0.00628909	-0.00113519	
      1379	-0.00822181	-0.00210154	-0.00467850	-0.00532274	
      1380	-0.00693333	-0.00113519	-0.00145731	-0.00435638	
      1381	-0.00564486	-0.00306790	0.00273024	0.00562932	
      1382	-0.00467850	-0.00403426	0.00530720	0.00981687	
      1383	-0.00371214	-0.00210154	0.00401872	0.00434084	
      1384	-0.00113519	-0.00049095	0.00337448	0.00240812	
      1385	-0.00113519	-0.00242366	0.00530720	0.00015329	
      1386	-0.00500062	-0.00016883	0.00208601	0.00111965	
      1387	-0.00886605	-0.00274578	-0.00081307	0.00144177	
      1388	-0.00403426	-0.00339002	-0.00145731	-0.00306790	
      1389	-0.00177943	-0.00435638	-0.00725545	0.00015329	
      1390	0.00305236	-0.00435638	-0.00822181	0.00176389	
      1391	0.00401872	-0.00306790	-0.01208724	-0.00081307	
      1392	0.00498508	-0.00177943	-0.01015453	-0.00049095	
      1393	-0.00016883	0.00949475	-0.01337572	-0.00177943	
      1394	-0.00532274	0.00273024	-0.01208724	0.00015329	
      1395	-0.00242366	0.00208601	-0.01144300	-0.00081307	
      1396	0.00079753	-0.00145731	-0.00918817	-0.00049095	
      1397	0.00240812	-0.00210154	-0.00564486	0.00240812	
      1398	-0.00145731	-0.00016883	-0.00242366	-0.00113519	
      1399	0.00176389	-0.00113519	0.00144177	0.00015329	
      1400	0.00144177	0.00047541	0.00788415	-0.00113519	
      1401	0.00144177	-0.00016883	0.00788415	-0.00049095	
      1402	0.00756203	-0.00306790	0.00852839	-0.00145731	
      1403	0.00627356	-0.00145731	0.01239382	-0.00306790	
      1404	0.00273024	-0.00274578	0.00691779	-0.00242366	
      1405	0.00434084	-0.00274578	0.00981687	-0.00274578	
      1406	0.00144177	-0.00371214	0.00466296	-0.00306790	
      1407	-0.00306790	-0.00145731	0.00562932	-0.00210154	
      1408	-0.00532274	-0.01369784	0.00337448	-0.00435638	
      1409	-0.00661121	-0.02464989	-0.00081307	0.00015329	
      1410	-0.00532274	-0.02722684	-0.00661121	0.00240812	
      1411	0.00047541	-0.02336141	-0.00661121	0.00273024	
      1412	-0.00016883	-0.01305360	-0.00854393	0.00627356	
      1413	-0.00435638	0.00208601	-0.00757757	-0.00145731	
      1414	-0.01369784	0.03751912	-0.00918817	-0.00145731	
      1415	-0.01337572	0.07069741	-0.00693333	-0.00016883	
      1416	-0.00822181	0.03784124	-0.00628909	-0.00274578	
      1417	-0.00500062	0.01658137	-0.00306790	0.00079753	
      1418	-0.00822181	0.00756203	0.00047541	0.00369660	
      1419	-0.00822181	0.00723991	0.00434084	0.00627356	
      1420	0.01497078	0.00466296	0.00466296	0.00337448	
      1421	0.02076892	-0.00274578	0.00885051	0.00015329	
      1422	0.02044680	-0.00951029	0.01013899	-0.00467850	
      1423	0.02237952	-0.01627479	0.00852839	-0.00145731	
      1424	0.02076892	-0.02787108	0.01046111	0.00144177	
      1425	0.01658137	-0.03495771	0.00852839	-0.00016883	
      1426	0.01046111	-0.03109228	0.00369660	-0.00113519	
      1427	0.00530720	-0.00339002	0.00079753	0.00047541	
      1428	-0.00242366	-0.01208724	0.00079753	0.00466296	
      1429	-0.00725545	-0.00757757	-0.00371214	0.00562932	
      1430	0.00079753	0.04235091	-0.00403426	0.00015329	
      1431	0.00369660	0.03687488	-0.00757757	0.00047541	
      1432	-0.01176512	0.02012468	-0.00918817	0.00208601	
      1433	-0.01691903	0.02012468	-0.00951029	-0.00596698	
      1434	-0.03270287	0.02205740	-0.00596698	-0.00789969	
      1435	-0.04719824	0.01948044	-0.00532274	-0.00628909	
      1436	-0.01466419	0.01722561	-0.00693333	-0.00693333	
      1437	0.00530720	0.00434084	-0.00789969	-0.00339002	
      1438	0.00756203	-0.00177943	-0.00242366	0.00240812	
      1439	0.00595144	-0.00403426	0.00047541	0.00627356	
      1440	0.00015329	-0.00693333	0.00369660	0.00691779	
      1441	-0.01273148	-0.00532274	0.00659567	0.00111965	
      1442	-0.02497201	0.01819197	0.00949475	-0.00500062	
      1443	-0.00918817	-0.00113519	0.01110534	-0.00242366	
      1444	-0.00049095	-0.00661121	0.01207170	-0.00145731	
      1445	-0.00596698	-0.01208724	0.00981687	0.00047541	
      1446	-0.01337572	0.01529289	0.00788415	-0.00306790	
      1447	-0.01369784	0.02560071	0.00498508	-0.00757757	
      1448	-0.01369784	0.00305236	-0.00242366	-0.01401996	
      1449	-0.00628909	-0.00306790	-0.00951029	-0.01047664	
      1450	0.00305236	-0.00596698	-0.00918817	-0.00596698	
      1451	0.01271594	-0.01208724	-0.00886605	-0.00532274	
      1452	0.02624495	-0.01498631	-0.00822181	-0.00242366	
      1453	0.03268733	-0.00822181	-0.01079876	-0.00306790	
      1454	0.02560071	-0.00886605	-0.01305360	0.01046111	
      1455	0.01819197	-0.00757757	-0.01530843	0.01883621	
      1456	0.00530720	-0.00242366	-0.03012592	0.02012468	
      1457	0.02399011	0.00208601	-0.02432777	0.01915833	
      1458	0.03139886	0.01239382	-0.01240936	0.02173528	
      1459	0.02527859	0.00562932	0.00111965	0.01368230	
      1460	0.02012468	0.00337448	0.01722561	0.01013899	
      1461	0.01625925	0.00466296	0.03784124	0.00562932	
      1462	0.00466296	0.00498508	0.04363939	0.00079753	
      1463	-0.00822181	0.00208601	0.04557210	0.00369660	
      1464	-0.02497201	0.00079753	0.03397581	0.00369660	
      1465	-0.04301069	-0.01691903	0.01980256	-0.00081307	
      1466	-0.03624618	-0.02014022	0.01336018	-0.00661121	
      1467	-0.02368353	-0.01434208	0.00144177	-0.00854393	
      1468	0.00917263	-0.01788539	-0.01885174	-0.00854393	
      1469	0.01529289	-0.01337572	-0.04397704	-0.00951029	
      1470	0.01883621	-0.01273148	-0.05364062	-0.00596698	
      1471	0.02237952	-0.01176512	-0.04816459	-0.00693333	
      1472	0.02721131	-0.01079876	-0.03817890	-0.00113519	
      1473	0.01786985	-0.01208724	-0.01852963	-0.00145731	
      1474	0.00852839	-0.01176512	0.02237952	-0.00210154	
      1475	-0.00822181	-0.00886605	0.04975965	0.00047541	
      1476	-0.01981810	-0.00725545	0.02946614	-0.00210154	
      1477	-0.01176512	-0.00983241	0.00820627	-0.00467850	
      1478	0.01690349	-0.00951029	-0.00435638	-0.00210154	
      1479	0.02205740	-0.00854393	-0.00306790	-0.00306790	
      1480	-0.00210154	-0.00951029	-0.00210154	-0.00274578	
      1481	-0.00854393	-0.00628909	-0.00306790	-0.00306790	
      1483	-0.01530843	0.00111965	-0.00596698	-0.00596698	
      1484	-0.02980380	0.02044680	-0.00628909	-0.00725545	
      1485	-0.03141439	0.02302376	0.00659567	-0.00403426	
      1486	-0.03012592	0.01432654	0.04267303	0.00273024	
      1487	-0.02626049	0.00723991	0.03558641	0.00208601	
      1488	-0.01917386	0.00917263	0.01303806	0.00273024	
      1489	-0.00532274	0.00691779	0.00111965	0.00401872	
      1489	-0.00177943	-0.00467850	-0.00177943	-0.00306790	
      1490	0.00305236	-0.01273148	-0.00789969	-0.00789969	
      1491	0.00401872	-0.01337572	-0.01144300	-0.00210154	
      1492	0.01336018	-0.01563055	-0.01434208	-0.00242366	
      1493	0.01529289	-0.01949598	-0.01337572	-0.00435638	
      1494	0.01754773	-0.01079876	-0.01563055	-0.00628909	
      1495	0.00949475	0.01013899	-0.01305360	-0.00532274	
      1496	0.00659567	-0.00177943	-0.01240936	-0.00242366	
      1497	-0.00081307	-0.00693333	-0.01047664	-0.00242366	
      1498	-0.00983241	0.00852839	-0.00532274	0.00015329	
      1499	-0.03173651	0.02044680	-0.00145731	-0.00306790	
      1500	-0.02658261	0.00917263	0.00111965	-0.00500062	
      1501	-0.02400565	0.00530720	0.00273024	-0.00500062	
      1502	-0.02432777	-0.00789969	0.00530720	0.00047541	
      1503	-0.02142870	-0.00661121	0.00659567	0.01013899	
      1504	-0.01917386	-0.00435638	0.00562932	0.02302376	
      1505	-0.01756327	0.02076892	0.00627356	0.01754773	
      1506	-0.00757757	0.05362509	0.00466296	0.00627356	
      1507	0.01786985	0.01851409	0.00144177	0.00369660	
      1508	0.02463435	-0.01305360	-0.00210154	0.00723991	
      1509	0.01754773	-0.02497201	-0.00564486	0.00852839	
      1510	0.01400442	-0.02207294	-0.01079876	0.00305236	
      1511	0.01368230	-0.01659691	-0.01337572	0.00144177	
      1512	0.00434084	-0.00242366	-0.01273148	0.00401872	
      1513	-0.00113519	0.02946614	-0.01369784	0.00401872	
      1514	-0.02271718	0.03462005	-0.01273148	-0.00435638	
      1515	0.00079753	0.02012468	-0.01112088	-0.00596698	
      1516	0.03590853	0.00047541	-0.00725545	-0.00596698	
      1517	0.03945184	0.02721131	-0.00339002	-0.00467850	
      1518	0.03784124	0.02012468	-0.00049095	-0.00693333	
      1519	0.04396151	-0.03753466	0.00401872	-0.01079876	
      1520	0.03300945	-0.03334711	0.00595144	-0.00983241	
      1521	0.01915833	-0.01627479	0.00691779	-0.00693333	
      1522	0.00369660	-0.02046234	0.00788415	-0.00242366	
      1523	-0.02529413	-0.00918817	0.01046111	0.00917263	
      1524	-0.00274578	0.00949475	0.01078323	0.01142746	
      1525	-0.00500062	0.04202879	0.01239382	0.00981687	
      1526	-0.05557334	0.04557210	0.01174958	-0.00049095	
      1527	-0.08391983	0.02946614	0.00723991	-0.01015453	
      1528	-0.05750605	0.02141316	0.00434084	-0.01047664	
      1529	-0.02432777	0.01174958	-0.00145731	-0.00177943	
      1530	-0.01047664	0.00595144	-0.00403426	-0.00049095	
      1531	-0.00564486	0.00466296	-0.00757757	0.00273024	
      1532	-0.00822181	-0.00371214	-0.01015453	-0.00049095	
      1533	-0.00177943	-0.00886605	-0.01176512	-0.00049095	
      1534	0.00466296	-0.01176512	-0.00918817	-0.00016883	
      1535	0.01722561	-0.00693333	-0.00822181	0.00079753	
      1536	0.01851409	-0.00918817	-0.00789969	-0.00016883	
      1537	0.01239382	-0.01659691	-0.00532274	0.00144177	
      1538	0.00820627	-0.02078446	-0.00210154	0.00240812	
      1539	0.00208601	-0.02432777	0.00498508	0.00337448	
      1540	0.00691779	-0.02400565	0.00562932	0.00466296	
      1541	0.01046111	-0.02626049	0.00852839	-0.00049095	
      1542	0.00144177	-0.00983241	0.01110534	0.00530720	
      1543	0.00885051	-0.01208724	0.01464866	0.00305236	
      1544	0.01271594	-0.00242366	0.01078323	-0.00081307	
      1545	0.01658137	-0.00274578	0.00691779	-0.00306790	
      1546	0.01561501	-0.00210154	0.00498508	-0.00532274	
      1547	0.01786985	0.02044680	0.00369660	-0.00789969	
      1548	0.02109104	0.02495647	0.00144177	-0.00274578	
      1549	0.01174958	0.01239382	-0.00403426	0.00111965	
      1550	-0.00113519	0.01819197	-0.00274578	-0.00274578	
      1551	-0.01047664	0.00885051	-0.00918817	-0.00403426	
      1552	-0.01788539	0.00273024	-0.01144300	-0.00564486	
      1553	-0.01305360	-0.00145731	-0.01434208	-0.00210154	
      1554	0.00176389	-0.00918817	-0.01273148	0.00530720	
      1555	0.00273024	-0.00918817	-0.00918817	0.00401872	
      1556	0.00015329	-0.01273148	-0.00628909	0.00111965	
      1557	-0.00016883	-0.01401996	-0.00564486	0.00144177	
      1558	-0.00371214	-0.01240936	-0.00371214	-0.00081307	
      1559	-0.02239506	-0.00822181	-0.00016883	-0.00113519	
      1560	-0.02239506	-0.00532274	0.00240812	-0.00532274	
      1561	-0.02851532	-0.00306790	0.00723991	-0.00177943	
      1562	-0.02271718	-0.00049095	0.01142746	-0.00049095	
      1563	-0.00983241	-0.00306790	0.00917263	-0.00016883	
      1564	0.00337448	0.00723991	0.01013899	-0.00145731	
      1565	0.04621634	0.00885051	0.00917263	0.00047541	
      1566	0.04428363	0.02237952	0.00788415	0.00208601	
      1567	0.06071171	0.01046111	0.00369660	0.00111965	
      1568	0.05877899	-0.00049095	-0.00210154	-0.00339002	
      1569	0.03558641	0.00111965	-0.00403426	-0.00403426	
      1570	0.02109104	0.00208601	-0.00661121	-0.00532274	
      1571	0.00917263	-0.00242366	-0.01079876	-0.00500062	
      1572	-0.00306790	-0.00532274	-0.01015453	-0.00274578	
      1573	-0.01273148	-0.00596698	-0.01208724	0.00079753	
      1574	-0.01563055	-0.00145731	-0.01176512	-0.00113519	
      1575	-0.02851532	-0.00081307	-0.00822181	0.00047541	
      1576	-0.02239506	-0.00210154	-0.00886605	0.00111965	
      1577	-0.01820751	0.00047541	-0.00371214	0.00434084	
      1578	-0.01305360	0.00208601	-0.00016883	0.00369660	
      1579	-0.00500062	-0.00145731	0.00079753	-0.00177943	
      1580	-0.00210154	-0.00306790	0.00498508	0.00047541	
      1581	0.00144177	-0.00274578	0.00885051	0.00369660	
      1582	0.00659567	-0.00177943	0.01078323	0.00401872	
      1583	0.00981687	-0.00177943	0.00949475	-0.00371214	
      1584	0.00240812	-0.00403426	0.00885051	0.00015329	
      1585	-0.00500062	-0.00757757	0.00852839	-0.00049095	
      1586	-0.00564486	-0.00886605	0.00659567	-0.00242366	
      1587	-0.00983241	-0.00532274	0.00240812	-0.00306790	
      1588	-0.02239506	-0.00467850	0.00208601	-0.00435638	
      1589	-0.02368353	0.00176389	-0.00242366	-0.00242366	
      1590	-0.01015453	0.00111965	-0.00435638	0.00466296	
      1591	-0.01659691	0.00208601	-0.00951029	0.01239382	
      1592	-0.03141439	0.00111965	-0.01079876	0.01464866	
      1593	-0.01563055	-0.00210154	-0.01112088	0.01239382	
      1594	0.00176389	0.00369660	-0.01176512	0.00208601	
      1595	0.02882190	0.00949475	-0.00886605	-0.00049095	
      1596	0.02399011	0.00434084	-0.00467850	-0.00628909	
      1597	0.01658137	0.00079753	-0.00371214	-0.00081307	
      1598	0.01336018	-0.00177943	-0.00049095	0.00434084	
      1599	0.01497078	-0.00371214	0.00015329	0.00595144	
      1600	0.01207170	-0.00725545	0.00659567	-0.00177943	
      1601	0.01368230	-0.01240936	0.00820627	-0.00564486	
      1602	0.00015329	-0.00983241	0.01078323	-0.00339002	
      1603	-0.01401996	-0.00306790	0.01207170	-0.00532274	
      1604	-0.02432777	-0.01240936	0.01013899	-0.00725545	
      1605	-0.02851532	-0.01240936	0.01110534	-0.00467850	
      1606	-0.02432777	0.00498508	0.00756203	-0.00177943	
      1607	-0.01498631	0.00144177	0.00466296	0.00079753	
      1608	0.00498508	-0.01563055	-0.00049095	-0.00274578	
      1609	0.02270164	-0.00822181	-0.00628909	0.00401872	
      1610	0.01464866	0.03784124	-0.00789969	0.01174958	
      1611	0.01078323	0.02334588	-0.00661121	0.00756203	
      1612	-0.00274578	0.01142746	-0.00854393	-0.00081307	
      1613	-0.03238075	0.03784124	-0.01176512	-0.00113519	
      1614	-0.03689042	0.02688919	-0.01112088	-0.00403426	
      1615	-0.03238075	0.00820627	-0.01047664	0.00176389	
      1616	0.00240812	0.01013899	-0.01112088	0.00240812	
      1617	0.00401872	0.00917263	-0.00596698	0.00305236	
      1618	-0.01112088	0.00079753	-0.00016883	-0.00467850	
      1619	0.00111965	-0.01273148	0.00434084	-0.00854393	
      1620	0.00337448	-0.01595267	0.00562932	-0.00306790	
      1621	-0.00693333	-0.00693333	0.00756203	-0.00339002	
      1622	0.00015329	0.00562932	0.01013899	-0.00693333	
      1623	0.02302376	0.01207170	0.00949475	-0.00628909	
      1624	0.00981687	-0.00242366	0.00981687	-0.00403426	
      1625	0.00627356	-0.01885174	0.00723991	-0.00145731	
      1626	0.00627356	-0.01434208	0.00659567	0.00015329	
      1627	-0.01047664	-0.00306790	0.00079753	-0.00016883	
      1628	-0.00210154	-0.02239506	-0.00177943	0.00144177	
      1629	0.00917263	-0.00822181	-0.00789969	0.00144177	
      1630	0.01013899	0.00595144	-0.00757757	-0.00016883	
      1631	-0.01530843	0.01046111	-0.00854393	-0.00274578	
      1632	0.00498508	0.00820627	-0.00918817	-0.00661121	
      1633	-0.00725545	0.00820627	-0.01079876	-0.00886605	
      1634	-0.01176512	0.02302376	-0.01079876	-0.00242366	
      1635	-0.00757757	0.02076892	-0.01047664	0.00273024	
      1636	-0.00500062	0.01883621	-0.00886605	0.00530720	
      1637	-0.00371214	0.01883621	-0.00596698	0.00434084	
      1638	-0.00306790	0.00562932	-0.00306790	0.00466296	
      1639	0.00401872	0.00015329	0.00498508	0.00208601	
      1640	0.00595144	-0.00274578	0.00498508	-0.00371214	
      1641	0.00756203	-0.01079876	0.01078323	-0.00145731	
      1642	0.00949475	-0.01369784	0.01142746	-0.00274578	
      1643	-0.00403426	-0.00532274	0.01142746	-0.00403426	
      1644	-0.00951029	-0.00016883	0.01078323	-0.00242366	
      1645	-0.00564486	-0.01176512	0.00820627	-0.00210154	
      1646	0.00047541	-0.02078446	0.00595144	0.00176389	
      1647	0.00627356	-0.01659691	0.00273024	-0.00274578	
      1648	0.00498508	-0.01144300	0.00015329	-0.00532274	
      1649	0.00627356	-0.01144300	-0.00242366	-0.00177943	
      1650	0.00047541	-0.00016883	-0.00467850	-0.00210154	
      1651	-0.00274578	0.01078323	-0.00886605	-0.00274578	
      1652	-0.00339002	0.00723991	-0.00854393	0.00434084	
      1653	-0.00403426	-0.00081307	-0.01466419	0.01239382	
      1654	-0.00500062	-0.00564486	-0.01305360	0.01046111	
      1655	0.00047541	-0.01240936	-0.01337572	0.00917263	
      1656	0.00240812	-0.02078446	-0.01079876	0.00885051	
      1657	0.00240812	-0.01917386	-0.00693333	0.01142746	
      1658	0.01754773	-0.01691903	0.00015329	0.01078323	
      1659	0.00659567	-0.01240936	0.00240812	0.00337448	
      1660	0.00595144	-0.00467850	0.00595144	0.00337448	
      1661	0.00949475	0.01271594	0.00917263	-0.00145731	
      1662	0.02366799	0.00595144	0.01271594	-0.00306790	
      1663	0.01722561	-0.00049095	0.01207170	0.00047541	
      1664	0.01078323	-0.00210154	0.01078323	0.00079753	
      1665	0.00885051	-0.00177943	0.00949475	0.00144177	
      1666	0.01174958	0.01432654	0.00756203	-0.00306790	
      1667	0.00434084	0.00562932	0.00273024	-0.00403426	
      1668	-0.01659691	0.00111965	-0.00145731	-0.00467850	
      1669	-0.01273148	0.00595144	-0.00339002	-0.00661121	
      1670	-0.03753466	0.00756203	-0.00435638	-0.00661121	
      1671	-0.00725545	0.00949475	-0.00886605	-0.00725545	
      1672	-0.03205863	0.01142746	-0.00693333	-0.00564486	
      1673	-0.01434208	0.00949475	-0.01047664	-0.00596698	
      1674	0.01013899	-0.00757757	-0.01305360	-0.00113519	
      1675	0.00691779	-0.00274578	-0.00951029	0.00144177	
      1676	-0.00145731	0.00305236	-0.00596698	0.00305236	
      1677	0.01368230	-0.00403426	-0.00467850	0.00047541	
      1678	0.02012468	-0.00918817	-0.00177943	0.00047541	
      1679	0.01980256	-0.00854393	0.00240812	0.00466296	
      1680	0.01400442	-0.01144300	0.00595144	0.00691779	
      1681	-0.01176512	-0.00628909	0.00659567	0.00047541	
      1682	-0.02883744	-0.00435638	0.01142746	-0.00403426	
      1683	-0.01434208	-0.00532274	0.01046111	-0.00435638	
      1684	0.01013899	-0.00339002	0.01142746	-0.00403426	
      1685	-0.00596698	0.00337448	0.00949475	0.00015329	
      1686	-0.04236645	0.00949475	0.00691779	0.00337448	
      1687	-0.01466419	0.02302376	0.00498508	0.00337448	
      1688	0.01948044	0.01851409	-0.00016883	-0.00049095	
      1689	-0.00274578	0.01625925	-0.00210154	-0.00049095	
      1690	-0.01434208	0.00820627	-0.00274578	-0.00016883	
      1691	-0.00210154	-0.00081307	-0.00854393	-0.00081307	
      1692	-0.00628909	-0.00081307	-0.00822181	-0.00113519	
      1693	-0.00886605	-0.00210154	-0.00854393	-0.00403426	
      1694	-0.00500062	-0.00467850	-0.00983241	-0.00242366	
      1695	-0.00145731	-0.01176512	-0.01434208	-0.00177943	
      1696	-0.00113519	-0.01981810	-0.01015453	-0.00177943	
      1697	-0.00242366	-0.02883744	-0.00725545	-0.00951029	
      1698	-0.00661121	-0.03721254	-0.00371214	-0.00532274	
      1699	-0.00951029	-0.03463559	0.00176389	-0.00435638	
      1700	-0.01595267	-0.02819320	0.00530720	-0.00113519	
      1701	0.00498508	0.01819197	0.00756203	0.00498508	
      1702	-0.00435638	0.03107674	0.00820627	0.01271594	
      1703	-0.00951029	0.02044680	0.00820627	0.00562932	
      1704	0.02495647	0.04814906	0.01013899	0.00144177	
      1705	0.03107674	0.03816336	0.01013899	0.00015329	
      1706	0.04782694	0.00369660	0.00659567	-0.00564486	
      1707	0.03945184	-0.02432777	0.00144177	-0.01112088	
      1708	0.02495647	-0.01079876	-0.00016883	-0.01079876	
      1709	0.00788415	0.01593713	-0.00210154	-0.00596698	
      1710	0.00498508	0.03429793	-0.00564486	-0.00242366	
      1711	-0.00661121	0.00659567	-0.00789969	0.00240812	
      1712	-0.00693333	0.03751912	-0.01079876	0.00595144	
      1713	-0.00854393	0.01207170	-0.01273148	0.00756203	
      1714	-0.00242366	-0.01273148	-0.01208724	0.00852839	
      1715	0.00144177	-0.01466419	-0.01112088	0.00337448	
      1716	0.00530720	-0.01144300	-0.00822181	0.00079753	
      1717	0.00756203	-0.01015453	-0.00403426	-0.00371214	
      1718	0.01625925	-0.00661121	-0.00113519	-0.00274578	
      1719	0.01980256	-0.00177943	0.00111965	-0.00274578	
      1720	0.00917263	-0.00210154	0.00466296	0.00144177	
      1721	-0.02046234	0.00176389	0.00885051	0.00015329	
      1722	-0.03431347	-0.01401996	0.01142746	0.00144177	
      1723	-0.02561625	-0.02400565	0.00981687	0.00756203	
      1724	-0.03366923	-0.00661121	0.00852839	0.00788415	
      1725	-0.03302499	-0.00306790	0.00852839	0.00498508	
      1726	-0.01820751	-0.00403426	0.00530720	-0.00339002	
      1727	-0.00918817	0.00111965	-0.00049095	0.00208601	
      1728	-0.01112088	0.01625925	-0.00274578	0.01046111	
      1729	0.00401872	0.01303806	-0.00532274	0.00273024	
      1730	0.01110534	0.00401872	-0.00467850	-0.00145731	
      1731	0.01368230	-0.00177943	-0.00596698	-0.00403426	
      1732	0.00466296	-0.00177943	-0.00854393	-0.00145731	
      1733	0.02366799	-0.01466419	-0.01337572	0.00079753	
      1734	0.03043250	-0.02078446	-0.01176512	0.00208601	
      1735	0.01786985	-0.00435638	-0.00918817	0.00176389	
      1736	0.00111965	0.00240812	-0.00628909	-0.00081307	
      1737	-0.01949598	0.00337448	-0.00532274	-0.00210154	
      1738	-0.00500062	-0.00210154	-0.00049095	0.00079753	
      1739	0.00466296	-0.00435638	0.00208601	-0.00016883	
      1740	0.00562932	-0.00467850	0.00562932	-0.00016883	
      1741	-0.00113519	-0.00757757	0.01110534	-0.00467850	
      1742	-0.00725545	-0.00306790	0.01336018	-0.00789969	
      1743	-0.00951029	-0.00339002	0.00981687	-0.01144300	
      1744	-0.00918817	-0.00500062	0.01303806	-0.01401996	
      1745	-0.00596698	-0.00789969	0.00723991	-0.01047664	
      1746	-0.00177943	-0.00564486	0.00723991	-0.00435638	
      1747	-0.00532274	0.00047541	0.00595144	0.00595144	
      1748	-0.01337572	0.00691779	-0.00016883	0.01110534	
      1749	-0.00242366	0.00659567	-0.00274578	0.01658137	
      1750	0.00562932	0.00337448	-0.00467850	0.02012468	
      1751	0.00562932	0.00176389	-0.01112088	0.01529289	
      1752	-0.00177943	0.00240812	-0.00951029	0.00466296	
      1753	-0.00113519	-0.00177943	-0.00854393	0.00047541	
      1754	0.00144177	-0.02368353	-0.01112088	0.00111965	
      1755	0.00401872	-0.02787108	-0.01015453	0.00434084	
      1756	0.00111965	-0.02175082	-0.00918817	0.00498508	
      1757	-0.00822181	-0.00242366	-0.00661121	-0.00210154	
      1758	-0.01498631	0.01497078	-0.00113519	-0.00725545	
      1759	-0.02497201	0.00627356	0.00208601	-0.00532274	
      1760	-0.02754896	0.01432654	0.00562932	-0.00757757	
      1761	0.01915833	0.00949475	0.00885051	-0.00789969	
      1762	0.06683198	-0.00274578	0.01013899	-0.00886605	
      1763	0.06328866	-0.00918817	0.01239382	-0.00532274	
      1764	0.03945184	-0.01208724	0.00949475	-0.00564486	
      1765	0.01142746	-0.00886605	0.00852839	-0.00049095	
      1766	-0.00467850	-0.00757757	0.00498508	-0.00725545	
      1767	0.00466296	-0.00661121	0.00208601	-0.00145731	
      1768	-0.00596698	-0.00177943	-0.00210154	0.00595144	
      1769	-0.01756327	0.02946614	-0.00274578	-0.00049095	
      1770	-0.07103506	0.03655277	-0.00274578	-0.00951029	
      1771	-0.09551612	0.02688919	-0.00693333	-0.00854393	
      1772	-0.04301069	0.01819197	-0.01208724	-0.00371214	
      1773	-0.02207294	0.01400442	-0.01144300	-0.00210154	
      1774	-0.00242366	0.00562932	-0.01273148	-0.00467850	
      1775	0.00369660	0.00466296	-0.00918817	-0.00435638	
      1776	0.00723991	0.00273024	-0.00661121	-0.00210154	
      1777	0.00820627	0.00111965	-0.00371214	-0.00113519	
      1778	0.00208601	0.00369660	0.00176389	-0.01112088	
      1779	-0.00049095	-0.00274578	0.00305236	-0.00789969	
      1780	0.00305236	-0.00693333	0.00627356	-0.00274578	
      1781	0.00208601	-0.00596698	0.00756203	0.00434084	
      1782	-0.00145731	-0.00532274	0.01207170	0.01174958	
      1783	-0.00371214	-0.00564486	0.01207170	0.01786985	
      1784	-0.00435638	-0.00886605	0.01174958	0.02044680	
      1785	-0.01079876	-0.00951029	0.01046111	0.02366799	
      1786	-0.01176512	-0.02078446	0.00659567	0.02109104	
      1787	-0.00693333	-0.02239506	0.00530720	0.01915833	
      1788	-0.00725545	-0.01820751	0.00273024	0.00820627	
      1789	-0.00435638	0.02076892	0.00144177	0.00047541	
      1790	0.00498508	0.04396151	-0.00628909	-0.00242366	
      1791	0.01690349	0.02334588	-0.00725545	-0.00725545	
      1792	0.01368230	0.03204310	-0.00886605	-0.00371214	
      1793	0.01110534	0.01303806	-0.01208724	-0.00210154	
      1794	0.01013899	0.00079753	-0.01337572	-0.00177943	
      1795	0.01722561	-0.00177943	-0.01015453	-0.00016883	
      1796	0.01625925	-0.00564486	-0.00693333	-0.00693333	
      1797	0.02785555	-0.00306790	-0.02078446	-0.02400565	
      1798	0.00949475	-0.00177943	-0.00274578	-0.00596698	
      1799	0.01368230	-0.00467850	-0.00081307	-0.00177943	
      1800	0.02109104	-0.00371214	0.00144177	-0.00145731	
      1801	0.01110534	-0.00274578	0.00949475	-0.00339002	
      1802	0.00369660	-0.00467850	0.01110534	-0.00435638	
      1803	0.00659567	-0.00661121	0.01078323	-0.00693333	
      1804	-0.00306790	-0.01820751	0.01046111	-0.00596698	
      1805	-0.00371214	-0.00532274	0.00917263	-0.00467850	
      1806	0.00627356	-0.01144300	0.00627356	-0.00371214	
      1807	0.00305236	-0.01724115	0.00562932	-0.00822181	
      1808	0.01013899	-0.01305360	0.00401872	-0.00500062	
      1809	0.00240812	0.01722561	-0.00081307	-0.00693333	
      1810	-0.00403426	0.02656707	-0.00435638	-0.00306790	
      1811	-0.00403426	0.01174958	-0.01015453	0.00691779	
      1812	-0.00500062	0.00466296	-0.01015453	0.00401872	
      1813	-0.00886605	-0.00596698	-0.01176512	0.00176389	
      1814	-0.00886605	-0.00500062	-0.01079876	0.00079753	
      1815	-0.00693333	-0.00467850	-0.01112088	0.00144177	
      1816	0.00498508	-0.00306790	-0.00918817	-0.00339002	
      1817	0.00981687	-0.00757757	-0.00564486	-0.00757757	
      1818	0.00981687	-0.00822181	0.00144177	-0.00371214	
      1819	0.00852839	-0.00210154	-0.00081307	-0.00435638	
      1820	0.00079753	-0.00371214	0.00305236	-0.00242366	
      1821	-0.00210154	-0.01337572	0.00852839	0.00401872	
      1822	0.00337448	-0.01208724	0.00756203	0.00788415	
      1823	0.00562932	-0.01466419	0.01046111	0.00595144	
      1824	0.00659567	-0.00596698	0.01110534	-0.00081307	
      1825	-0.02239506	-0.00177943	0.00627356	-0.00757757	
      1826	-0.05364062	0.00176389	0.00369660	-0.00274578	
      1827	-0.05074155	0.01980256	0.00111965	0.00273024	
      1828	-0.03850102	0.00885051	-0.00113519	0.00595144	
      1829	-0.02207294	0.00562932	-0.00242366	-0.00049095	
      1830	-0.01208724	0.00434084	-0.00532274	-0.00113519	
      1831	-0.00145731	0.00498508	-0.00918817	-0.00113519	
      1832	0.01529289	0.00434084	-0.01112088	0.00111965	
      1833	0.03526429	-0.00145731	-0.01563055	0.00144177	
      1834	0.03848548	0.00208601	-0.01047664	-0.00177943	
      1835	0.03204310	0.00788415	-0.00757757	-0.00081307	
      1836	0.02592283	-0.01724115	-0.00564486	-0.00661121	
      1837	0.03300945	-0.01240936	-0.00628909	0.00111965	
      1838	0.02849978	-0.01981810	-0.00049095	0.00691779	
      1839	0.02076892	-0.02175082	0.00208601	0.00659567	
      1840	-0.01401996	-0.01788539	0.00530720	-0.00145731	
      1841	-0.01756327	-0.01208724	0.00949475	0.00240812	
      1842	-0.01208724	0.00949475	0.00949475	0.00466296	
      1843	0.00111965	0.03268733	0.01013899	0.00111965	
      1844	0.00305236	0.01432654	0.01013899	-0.00242366	
      1845	0.00305236	0.00659567	0.00885051	-0.00145731	
      1846	-0.00242366	0.00852839	0.00659567	0.00047541	
      1847	-0.00274578	0.01464866	0.00498508	0.00111965	
      1849	0.00208601	0.02012468	-0.00016883	-0.00049095	
      1850	0.00917263	-0.00403426	-0.00177943	-0.00210154	
      1851	0.00595144	-0.00532274	-0.00596698	0.00240812	
      1852	0.00530720	-0.01176512	-0.01079876	0.00788415	
      1853	0.00015329	-0.01466419	-0.00983241	0.00305236	
      1854	-0.01434208	-0.00918817	-0.00854393	0.00079753	
      1855	-0.03785678	-0.00242366	-0.01369784	0.00111965	
      1855	-0.04204433	-0.00242366	-0.01240936	0.00434084	
      1856	0.02656707	-0.00435638	-0.00693333	0.00305236	
      1858	0.00111965	-0.00500062	-0.00403426	0.00208601	
      1859	-0.04590976	-0.00016883	-0.00049095	0.00176389	
      1860	-0.04043373	0.00434084	0.00305236	0.00047541	
      1861	-0.01917386	-0.00081307	0.00820627	-0.00306790	
      1862	0.01110534	-0.00725545	0.00981687	-0.00145731	
      1863	0.02302376	-0.00274578	0.00981687	-0.00113519	
      1864	-0.01369784	0.00305236	0.01400442	-0.00274578	
      1865	-0.01176512	0.01013899	0.01271594	-0.00854393	
      1865	-0.00467850	0.00208601	0.00852839	-0.00467850	
      1866	0.00273024	-0.00210154	0.00852839	-0.00467850	
      1867	0.00498508	0.00208601	0.00562932	-0.00274578	
      1868	0.00756203	0.00659567	0.00176389	-0.00403426	
      1869	0.01593713	0.01625925	-0.00242366	0.00015329	
      1870	0.01110534	0.01754773	-0.00339002	-0.00081307	
      1871	0.01883621	0.00111965	-0.01015453	-0.00274578	
      1872	0.02366799	-0.00628909	-0.01498631	0.00337448	
      1873	0.01915833	-0.01273148	-0.01466419	0.01207170	
      1874	0.01368230	-0.00983241	-0.01434208	0.00369660	
      1875	0.00015329	-0.00725545	-0.01337572	-0.00113519	
      1876	-0.00306790	-0.01144300	-0.01176512	-0.00435638	
      1877	-0.01305360	-0.00435638	-0.00725545	-0.00177943	
      1878	-0.02658261	0.01142746	-0.00371214	-0.00661121	
      1879	-0.01949598	0.01625925	0.00530720	-0.01047664	
      1880	-0.00693333	0.01110534	0.00788415	-0.01208724	
      1881	-0.00757757	0.00917263	0.00756203	-0.00918817	
      1882	-0.01981810	0.02495647	0.01207170	-0.00918817	
      1883	-0.02078446	0.00176389	0.01303806	-0.00306790	
      1884	-0.02400565	-0.01820751	0.01239382	-0.00403426	
      1885	-0.02819320	-0.02110658	0.00562932	0.00111965	
      1886	-0.02078446	-0.02207294	0.00498508	0.01303806	
      1887	-0.00628909	-0.02142870	0.00144177	0.01948044	
      1888	-0.00145731	0.02656707	0.00176389	0.01174958	
      1889	0.01368230	0.01786985	-0.00016883	0.00756203	
      1890	0.01529289	-0.00339002	-0.00532274	0.00659567	
      1891	0.01915833	-0.00306790	-0.01079876	0.00401872	
      1892	0.02366799	0.00627356	-0.00822181	0.00015329	
      1893	0.03880760	0.00595144	-0.01144300	-0.00242366	
      1894	0.04235091	0.00337448	-0.00822181	0.00144177	
      1895	0.00852839	0.01658137	-0.00789969	-0.00693333	
      1896	-0.01691903	0.00885051	-0.00371214	-0.01047664	
      1897	-0.00789969	0.00208601	-0.00371214	-0.00661121	
      1898	0.00176389	0.00111965	0.00079753	0.00498508	
      1899	0.01078323	-0.00145731	0.00498508	0.00434084	
      1900	0.01529289	-0.00693333	0.00530720	0.00337448	
      1901	0.00176389	-0.00596698	0.00917263	0.00756203	
      1902	-0.00049095	-0.00467850	0.00981687	0.00659567	
      1903	-0.00274578	-0.00467850	0.01078323	0.00273024	
      1904	0.00208601	-0.00951029	0.00788415	-0.00177943	
      1905	-0.00145731	-0.01047664	0.00788415	-0.00532274	
      1906	-0.00242366	-0.00757757	0.00885051	-0.00822181	
      1907	-0.00693333	-0.00177943	0.00530720	-0.00532274	
      1908	-0.01273148	0.00595144	0.00015329	-0.00371214	
      1909	-0.01015453	0.00691779	-0.00403426	-0.00016883	
      1910	-0.00789969	0.00562932	-0.00693333	0.00176389	
      1911	-0.00177943	0.00047541	-0.00918817	0.00369660	
      1912	-0.00371214	-0.00016883	-0.00951029	0.00337448	
      1913	-0.00016883	-0.00113519	-0.01273148	0.00273024	
      1914	0.00691779	-0.00628909	-0.01498631	-0.00049095	
      1915	0.01497078	-0.00661121	-0.01369784	-0.00339002	
      1916	0.00949475	-0.00661121	-0.00918817	-0.00371214	
      1917	-0.00049095	-0.01659691	-0.00306790	-0.00177943	
      1918	0.00144177	-0.01917386	-0.00145731	-0.00081307	
      1919	0.00240812	-0.01852963	0.00434084	-0.00016883	
      1920	0.00079753	-0.02078446	0.00273024	-0.00113519	
      1921	-0.01144300	-0.02400565	0.00530720	0.00273024	
      1922	0.01142746	-0.02851532	0.01046111	-0.00177943	
      1923	0.00111965	-0.01369784	0.01271594	-0.01208724	
      1924	-0.00403426	0.01368230	0.01464866	-0.00886605	
      1925	-0.00306790	0.01336018	0.00595144	-0.00532274	
      1926	-0.01208724	0.02946614	0.00659567	0.00240812	
      1927	-0.00886605	0.02624495	0.00240812	0.01207170	
      1928	-0.03044804	0.00401872	-0.00113519	0.01368230	
      1929	-0.04429916	0.01754773	-0.00403426	0.00788415	
      1930	-0.01047664	0.01078323	-0.00564486	0.00208601	
      1931	0.02592283	-0.00113519	-0.00854393	-0.00016883	
      1932	-0.00113519	-0.00242366	-0.01112088	-0.00145731	
      1933	-0.02658261	-0.00306790	-0.01401996	0.00079753	
      1934	-0.02175082	-0.00435638	-0.01401996	0.00208601	
      1935	-0.01369784	-0.00661121	-0.00918817	-0.00371214	
      1936	-0.01917386	-0.00757757	-0.00951029	-0.00596698	
      1937	-0.00403426	-0.00242366	-0.00596698	-0.00532274	
      1938	0.02978826	0.00047541	0.00111965	-0.00371214	
      1939	0.01722561	-0.00886605	0.00176389	-0.00145731	
      1940	-0.00757757	-0.00081307	0.00466296	0.00015329	
      1941	0.01593713	-0.00596698	0.00852839	-0.00564486	
      1942	0.00949475	0.00208601	0.01174958	-0.01047664	
      1943	-0.00081307	0.01432654	0.01336018	-0.01047664	
      1944	0.00176389	0.00788415	0.01142746	-0.00725545	
      1945	0.01625925	-0.01079876	0.00562932	0.00208601	
      1946	0.01851409	-0.00532274	0.00498508	0.01336018	
      1947	0.00240812	-0.00500062	0.00144177	0.01915833	
      1948	0.00723991	-0.00725545	-0.00049095	0.01754773	
      1949	0.00852839	0.00208601	-0.00435638	0.01110534	
      1950	-0.01369784	0.01529289	-0.00467850	0.00595144	
      1951	-0.00854393	0.00852839	-0.00983241	0.00273024	
      1952	0.00691779	-0.00822181	-0.01015453	0.00466296	
      1953	-0.00049095	-0.02239506	-0.01079876	0.00144177	
      1954	-0.00628909	-0.01208724	-0.01112088	-0.00339002	
      1955	0.00144177	0.00015329	-0.00693333	-0.01079876	
      1956	0.01529289	0.00595144	-0.00854393	-0.00951029	
      1957	0.01883621	0.00627356	-0.00693333	-0.00596698	
      1958	0.00466296	0.04074032	0.00305236	-0.00016883	
      1959	0.00176389	0.01239382	0.00498508	-0.00177943	
      1960	-0.00339002	-0.00467850	0.00530720	-0.00371214	
      1961	-0.00725545	0.00208601	0.00627356	-0.00564486	
      1962	-0.01112088	0.05008177	0.01013899	-0.00306790	
      1963	-0.00371214	0.03977396	0.01013899	-0.00081307	
      1964	0.00240812	0.00756203	0.00981687	-0.00145731	
      1965	-0.01401996	0.00530720	0.00820627	-0.00403426	
      1966	-0.00757757	0.00981687	0.00627356	-0.00113519	
      1967	-0.01273148	0.00917263	0.00047541	0.00144177	
      1968	-0.00500062	0.00788415	0.00144177	0.00079753	
      1969	0.00466296	0.00305236	-0.00145731	0.00273024	
      1970	-0.00049095	-0.00596698	-0.00725545	-0.00371214	
      1971	-0.00532274	-0.00661121	-0.01112088	-0.00113519	
      1972	0.00144177	-0.00789969	-0.01079876	0.00079753	
      1973	0.02592283	-0.01434208	-0.01079876	0.00111965	
      1974	0.02688919	-0.01466419	-0.01208724	-0.00177943	
      1975	0.01174958	-0.01369784	-0.00822181	0.00047541	
      1976	0.00885051	-0.01691903	-0.00500062	-0.00049095	
      1977	0.00820627	-0.01240936	-0.00789969	0.00015329	
      1978	0.00176389	-0.00532274	-0.00306790	-0.00145731	
      1979	-0.00210154	-0.00016883	0.00273024	-0.00081307	
      1980	0.00337448	-0.00500062	0.00530720	0.00240812	
      1981	0.00176389	-0.00886605	0.00788415	-0.00016883	
      1982	-0.00467850	-0.00725545	0.00949475	0.00047541	
      1983	-0.00210154	-0.01369784	0.01110534	0.00176389	
      1984	-0.00435638	-0.00983241	0.00885051	-0.00177943	
      1985	-0.00628909	-0.00596698	0.00723991	-0.00210154	
      1986	-0.00339002	-0.00500062	0.00627356	-0.00467850	
      1987	-0.01305360	-0.00693333	0.00401872	-0.00306790	
      1988	-0.02593837	-0.00951029	-0.00145731	-0.00306790	
      1989	-0.02142870	-0.01079876	-0.00532274	-0.00306790	
      1990	-0.01369784	-0.01047664	-0.00693333	-0.00113519	
      1991	0.00240812	-0.00789969	-0.00886605	-0.00210154	
      1992	-0.00306790	-0.00049095	-0.00725545	-0.00081307	
      1993	-0.01273148	0.00401872	-0.00918817	0.00144177	
      1994	-0.00145731	0.00401872	-0.01176512	0.00144177	
      1995	0.00659567	0.00369660	-0.01208724	0.00337448	
      1996	0.01303806	0.00111965	-0.00628909	0.00595144	
      1997	0.00756203	-0.00339002	-0.00532274	0.01013899	
      1998	0.03365369	0.00015329	-0.00049095	0.00981687	
      1999	0.01046111	-0.00564486	0.00337448	0.00659567	
      2000	0.01464866	-0.01337572	0.00691779	0.00208601	
      2001	0.01464866	-0.01530843	0.01046111	0.00111965	
      2002	-0.04429916	-0.00274578	0.01078323	-0.00242366	
      2003	-0.03624618	-0.00564486	0.00917263	0.00079753	
      2004	-0.01079876	-0.00628909	0.01239382	-0.00435638	
      2005	-0.02110658	0.00144177	0.00949475	-0.00661121	
      2006	-0.02432777	0.01464866	0.00659567	-0.01273148	
      2007	-0.04558764	0.02399011	0.00756203	-0.02110658	
      2008	-0.06523691	0.01915833	-0.00113519	-0.01112088	
      2009	-0.01820751	0.01819197	-0.00210154	-0.00564486	
      2010	0.02173528	0.01754773	-0.00564486	-0.00339002	
      2011	0.05587992	0.00852839	-0.00951029	0.00047541	
      2012	0.06361078	0.00337448	-0.00951029	0.01142746	
      2013	0.05137025	0.00015329	-0.01144300	0.01561501	
      2014	0.03429793	0.00208601	-0.00983241	0.01013899	
      2015	0.02624495	0.00176389	-0.00822181	-0.00113519	
      2016	0.01497078	0.00176389	-0.00757757	0.00176389	
      2017	0.00852839	-0.00177943	-0.00403426	0.00562932	
      2018	0.00595144	-0.00661121	0.00176389	0.00885051	
      2019	0.00047541	-0.00757757	0.00401872	0.00369660	
      2020	0.00144177	-0.01112088	0.00530720	0.00305236	
      2021	0.00144177	-0.01852963	0.00788415	-0.00210154	
      2022	0.00981687	-0.02690473	0.01013899	-0.00822181	
      2023	0.00659567	-0.01852963	0.01078323	-0.00725545	
      2024	-0.00049095	0.00144177	0.00981687	-0.00661121	
      2025	-0.00016883	-0.00886605	0.00659567	-0.01176512	
      2026	-0.01015453	0.01142746	0.00595144	-0.00403426	
      2027	-0.03109228	0.02173528	0.00176389	0.00434084	
      2028	-0.03173651	0.02656707	-0.00016883	0.00498508	
      2029	-0.04204433	0.02882190	-0.00177943	0.01239382	
      2030	-0.00886605	0.02399011	-0.00532274	0.01207170	
      2031	-0.00596698	0.01625925	-0.00951029	-0.00145731	
      2032	-0.01595267	0.01174958	-0.01144300	-0.00500062	
      2033	-0.00628909	0.00176389	-0.01498631	-0.00435638	
      2034	-0.00564486	-0.00628909	-0.01466419	-0.00371214	
      2035	-0.00435638	-0.01563055	-0.01208724	0.00111965	
      2036	-0.00564486	-0.00596698	-0.00918817	0.00627356	
      2037	-0.00339002	-0.00661121	-0.00403426	0.00079753	
      2038	-0.00403426	-0.00210154	0.00208601	0.00176389	
      2039	0.00305236	-0.00596698	0.00305236	-0.00016883	
      2040	-0.00564486	-0.01015453	0.00627356	0.00047541	
      2041	-0.00951029	-0.01305360	0.00917263	-0.00274578	
      2042	0.00498508	-0.01369784	0.00756203	-0.00274578	
      2043	0.00949475	-0.00661121	0.00885051	-0.00403426	
      2044	0.00949475	-0.00757757	0.01013899	-0.00016883	
      2045	0.00691779	0.00111965	0.00885051	-0.00113519	
      2046	0.00337448	0.02205740	0.00981687	-0.00274578	
      2047	-0.00113519	0.00337448	0.00562932	-0.00049095	
      2048	-0.00242366	-0.01047664	0.00144177	-0.00113519	
      2049	0.00530720	-0.01401996	-0.00274578	-0.00306790	
      2050	0.00240812	-0.01820751	-0.00628909	-0.00210154	
      2051	-0.00339002	-0.01466419	-0.00757757	-0.00339002	
      2052	0.00273024	-0.00467850	-0.00854393	-0.00210154	
      2053	0.00240812	0.00369660	-0.01015453	-0.00177943	
      2054	-0.00306790	0.02302376	-0.01240936	-0.00177943	
      2055	-0.00306790	0.02334588	-0.00854393	0.00111965	
      2056	-0.00500062	0.03751912	-0.00725545	-0.00210154	
      2057	-0.00306790	0.02560071	-0.00242366	-0.00177943	
      2058	0.00015329	-0.01627479	-0.00049095	-0.00113519	
      2059	0.00401872	-0.01240936	0.00562932	-0.00210154	
      2060	0.00820627	-0.00371214	0.00788415	-0.00339002	
      2061	0.00015329	-0.00306790	0.00949475	-0.00403426	
      2062	-0.00210154	-0.01337572	0.00852839	-0.00210154	
