‘ª’èŽžŠÔ	T1Raw	T2Raw	T3Raw	T4Raw	
         0	-0.02239506	-0.01112088	-0.00532274	-0.00016883	
         0	-0.03270287	0.00723991	-0.00822181	0.00498508	
         1	-0.04043373	0.01110534	-0.00951029	-0.00145731	
         2	-0.02948168	0.01013899	-0.00886605	-0.00339002	
         3	-0.01079876	-0.01144300	-0.01144300	-0.00274578	
         4	-0.01112088	-0.00661121	-0.01112088	-0.00210154	
         5	-0.01530843	-0.00371214	-0.01015453	-0.00081307	
         6	0.02495647	-0.00403426	-0.00596698	-0.00016883	
         7	0.00820627	-0.00242366	-0.00306790	0.00273024	
         8	0.02882190	-0.00435638	0.00176389	0.00337448	
         9	0.03848548	-0.02207294	0.00305236	0.00176389	
        10	0.03655277	-0.02497201	0.00337448	-0.00081307	
        11	0.02270164	-0.00371214	0.00949475	-0.00210154	
        12	0.01625925	0.01754773	0.01303806	0.00240812	
        13	0.02205740	0.01722561	0.01142746	0.00273024	
        14	0.02656707	0.03977396	0.00949475	0.00176389	
        15	0.02882190	0.02431223	0.00885051	-0.00403426	
        16	0.01754773	0.00788415	0.00627356	-0.00564486	
        17	-0.01208724	0.01432654	0.00498508	-0.00693333	
        18	-0.01788539	0.00788415	-0.00016883	-0.01047664	
        19	-0.00693333	-0.01079876	-0.00435638	-0.01627479	
        20	0.01013899	-0.02046234	-0.01015453	-0.01273148	
        21	-0.00339002	-0.01852963	-0.01369784	-0.00145731	
        22	-0.01981810	-0.00725545	-0.01176512	0.00498508	
        23	-0.02271718	-0.01208724	-0.01305360	0.01110534	
        24	-0.02400565	-0.00306790	-0.01208724	0.00788415	
        25	0.00079753	-0.01756327	-0.01015453	0.00659567	
        26	0.00208601	-0.01015453	-0.00564486	0.00917263	
        27	0.00691779	-0.01434208	-0.00306790	0.01303806	
        28	0.03011038	-0.01917386	0.00144177	0.00756203	
        29	0.02978826	-0.03721254	0.00562932	0.01078323	
        30	0.01819197	-0.03978949	0.00981687	0.01239382	
        31	0.01851409	-0.02980380	0.01046111	0.00723991	
        32	0.00176389	-0.03463559	0.01239382	0.00079753	
        33	-0.00822181	-0.02497201	0.01078323	-0.00564486	
        34	-0.02722684	0.03172098	0.00981687	-0.01208724	
        35	-0.00854393	0.03429793	0.00820627	-0.00854393	
        36	-0.00274578	0.06103383	0.00530720	-0.00371214	
        37	0.00949475	0.04041820	0.00111965	0.00015329	
        38	0.01336018	0.01336018	-0.00500062	0.00144177	
        39	0.01013899	0.01078323	-0.00596698	-0.00049095	
        40	0.00562932	0.01207170	-0.00822181	-0.00564486	
        41	-0.00371214	0.00756203	-0.01144300	-0.00500062	
        42	-0.00467850	0.00562932	-0.01208724	-0.00242366	
        43	0.00401872	0.00305236	-0.01305360	0.00627356	
        44	0.01078323	-0.00983241	-0.01176512	0.01013899	
        45	-0.00467850	-0.00951029	-0.00951029	0.00949475	
        46	-0.01627479	-0.00403426	-0.00661121	0.00691779	
        48	-0.00532274	-0.00403426	-0.00306790	0.00079753	
        48	-0.00274578	-0.01112088	0.00144177	-0.00532274	
        49	0.00144177	-0.01724115	0.00466296	0.00015329	
        50	-0.00306790	-0.01369784	0.00530720	0.00047541	
        51	-0.01401996	-0.00757757	0.01046111	-0.00145731	
        52	-0.02110658	-0.00628909	0.00981687	-0.00435638	
        53	-0.02432777	-0.00918817	0.01078323	-0.00693333	
        54	-0.00661121	-0.00628909	0.01239382	-0.00725545	
        55	-0.02142870	-0.00049095	0.00562932	-0.00435638	
        56	-0.03753466	0.00144177	0.00273024	-0.00757757	
        57	-0.02915956	0.00820627	0.00144177	-0.00532274	
        58	-0.01724115	0.00756203	-0.00016883	-0.00177943	
        59	-0.01079876	0.00273024	-0.00274578	-0.00757757	
        60	-0.00242366	-0.00854393	-0.00789969	-0.00274578	
        61	-0.00113519	-0.01691903	-0.00854393	-0.00081307	
        63	0.00595144	-0.02142870	-0.01273148	-0.00371214	
        63	0.00723991	-0.02207294	-0.01337572	-0.00339002	
        64	0.01368230	-0.01949598	-0.01305360	-0.00177943	
        65	0.01497078	-0.01466419	-0.00886605	-0.00081307	
        66	0.00691779	0.01690349	-0.00693333	0.00111965	
        67	0.00434084	0.05201449	-0.00210154	0.00079753	
        68	-0.00081307	0.02495647	0.00047541	0.00047541	
        69	0.00079753	-0.00049095	0.00466296	0.00240812	
        70	0.01303806	-0.00951029	0.00756203	0.00562932	
        71	0.01013899	-0.00371214	0.00852839	0.00595144	
        72	0.00917263	-0.00435638	0.00852839	0.00144177	
        74	0.00176389	0.00176389	0.01046111	-0.00113519	
        75	-0.00854393	0.00788415	0.00788415	-0.00177943	
        76	-0.01885174	0.00595144	0.00659567	-0.00274578	
        77	-0.01595267	0.00659567	0.00498508	0.00047541	
        78	0.00530720	0.00305236	0.00305236	-0.00145731	
        79	0.01948044	-0.00435638	-0.00242366	-0.00177943	
        80	0.00079753	-0.01273148	-0.00532274	-0.00274578	
        81	-0.00371214	-0.00757757	-0.00886605	0.00047541	
        82	0.00820627	0.00176389	-0.00951029	0.00305236	
        83	-0.00016883	0.01174958	-0.01112088	0.00208601	
        84	-0.00177943	-0.00918817	-0.00951029	0.00434084	
        85	0.02560071	-0.00274578	-0.00918817	0.00208601	
        86	0.03333157	0.01497078	-0.00564486	-0.00274578	
        87	0.01625925	0.00015329	-0.00242366	-0.00081307	
        88	0.01013899	0.00691779	-0.00113519	0.00337448	
        89	0.02109104	0.01690349	-0.00016883	0.00273024	
        90	0.00208601	0.02495647	0.00659567	0.00434084	
        91	-0.00306790	0.00820627	0.00820627	0.00530720	
        92	0.02173528	-0.01981810	0.01110534	-0.00081307	
        93	0.02237952	-0.01981810	0.01174958	-0.00661121	
        94	-0.00274578	-0.01079876	0.00917263	-0.00725545	
        95	-0.01820751	0.00208601	0.01078323	-0.00274578	
        96	-0.03012592	0.01497078	0.00949475	-0.00371214	
        97	-0.04365492	0.03172098	0.00562932	-0.00596698	
        98	-0.04687612	0.04524999	0.00466296	-0.00822181	
        99	-0.01015453	0.01432654	-0.00177943	-0.01563055	
       100	0.01368230	0.00079753	-0.00500062	-0.01144300	
       101	0.01464866	-0.00628909	-0.01079876	-0.00435638	
       102	0.01400442	-0.00983241	-0.01208724	-0.00049095	
       103	0.01142746	-0.01756327	-0.01176512	-0.00145731	
       104	0.01432654	-0.02851532	-0.01079876	-0.00113519	
       105	0.01786985	-0.02658261	-0.01305360	0.00788415	
       106	-0.01240936	-0.00371214	-0.00789969	0.01432654	
       107	-0.00757757	0.00595144	-0.00467850	0.00788415	
       108	-0.00500062	-0.00210154	-0.00113519	0.00111965	
       109	-0.00757757	-0.00822181	0.00273024	0.00176389	
       110	-0.01627479	-0.01047664	0.00530720	0.00144177	
       111	-0.00918817	-0.01885174	0.00820627	-0.00500062	
       112	0.01722561	-0.01530843	0.01078323	-0.00918817	
       113	0.00723991	0.00401872	0.00917263	-0.00016883	
       114	-0.00274578	-0.00371214	0.00917263	0.01078323	
       115	-0.02626049	-0.00081307	0.01046111	0.00756203	
       116	-0.04043373	0.01142746	0.00820627	-0.00016883	
       117	-0.03914526	0.00949475	0.00659567	-0.00177943	
       118	-0.02432777	-0.00628909	0.00176389	0.00144177	
       119	-0.00113519	-0.00403426	-0.00532274	0.00885051	
       120	0.01819197	0.00949475	-0.00628909	0.01625925	
       121	0.02270164	0.02463435	-0.00983241	0.01110534	
       122	0.02721131	0.01786985	-0.01401996	0.00337448	
       123	0.01561501	0.00723991	-0.01337572	0.00111965	
       124	-0.00016883	0.00498508	-0.01466419	0.00208601	
       125	-0.01208724	-0.00725545	-0.01208724	0.00144177	
       126	-0.02014022	-0.01852963	-0.00886605	-0.00081307	
       127	-0.00467850	-0.02722684	-0.00628909	-0.00113519	
       128	-0.00403426	-0.03141439	-0.00403426	-0.00628909	
       129	0.00047541	0.02785555	-0.00016883	-0.00628909	
       130	0.01625925	0.02688919	0.00434084	-0.00951029	
       131	0.01948044	0.00691779	0.00659567	-0.00886605	
       132	0.01303806	0.01625925	0.01046111	-0.00564486	
       133	0.00820627	0.01593713	0.00852839	0.00047541	
       134	-0.00306790	0.01046111	0.00949475	-0.00145731	
       135	-0.01949598	-0.00145731	0.01078323	-0.00564486	
       136	-0.02593837	-0.00596698	0.00595144	-0.00628909	
       137	-0.02239506	0.00530720	0.00305236	-0.00371214	
       138	-0.00725545	-0.01852963	-0.00016883	0.00337448	
       139	-0.00403426	-0.04043373	-0.00242366	0.00562932	
       140	0.01625925	-0.04816459	-0.00500062	0.00079753	
       141	0.03462005	-0.04687612	-0.00886605	0.00176389	
       142	0.02205740	-0.02175082	-0.00822181	0.00369660	
       143	-0.01208724	0.07359648	-0.00661121	0.00240812	
       144	-0.02175082	0.05330297	-0.00596698	0.00047541	
       145	-0.02303929	0.01239382	-0.00467850	-0.00274578	
       146	-0.02239506	0.04170667	-0.00435638	-0.00403426	
       147	-0.00177943	0.02592283	-0.00435638	-0.00210154	
       148	0.02109104	-0.00081307	-0.00274578	-0.00661121	
       149	0.02495647	-0.00822181	0.00144177	-0.01047664	
       150	0.02334588	-0.00628909	0.00562932	-0.00661121	
       151	0.02688919	-0.00371214	0.00562932	-0.01015453	
       152	0.01625925	-0.00242366	0.00981687	-0.01047664	
       153	0.00466296	-0.00564486	0.00852839	-0.00693333	
       154	0.00240812	-0.00757757	0.00885051	-0.00371214	
       155	0.00756203	-0.01563055	0.00691779	0.00530720	
       156	0.00627356	-0.00983241	0.00079753	0.00917263	
       157	0.00273024	-0.00532274	0.00111965	0.01013899	
       158	-0.00757757	-0.01820751	-0.00049095	0.00885051	
       159	-0.02400565	-0.01434208	-0.00371214	0.00401872	
       160	-0.00822181	-0.00822181	-0.00757757	0.00691779	
       161	0.00627356	-0.01144300	-0.00886605	0.02012468	
       162	0.00723991	-0.00081307	-0.01176512	0.01593713	
       163	-0.00435638	0.00756203	-0.01305360	0.01078323	
       164	-0.01369784	0.01819197	-0.00822181	0.00273024	
       165	-0.01691903	0.00949475	-0.01015453	-0.00016883	
       166	-0.02142870	0.00498508	-0.00693333	-0.00177943	
       167	-0.02754896	0.00852839	-0.00500062	-0.00113519	
       168	-0.00467850	0.00820627	-0.00081307	-0.00435638	
       169	0.03204310	0.00852839	0.00337448	-0.00500062	
       170	0.02173528	-0.00596698	0.00820627	0.00208601	
       171	0.00401872	-0.00339002	0.00917263	0.00176389	
       172	0.00208601	-0.00306790	0.01110534	-0.00049095	
       173	0.00337448	-0.00242366	0.01078323	-0.00435638	
       174	0.00111965	-0.00371214	0.01110534	-0.00725545	
       175	0.00015329	-0.00371214	0.00788415	-0.00564486	
       176	-0.00081307	-0.00564486	0.00498508	-0.00822181	
       177	-0.00177943	-0.00339002	0.00595144	-0.00306790	
       178	-0.01144300	0.00047541	0.00337448	-0.00435638	
       179	-0.01015453	-0.00016883	-0.00306790	-0.00757757	
       180	-0.00725545	-0.00306790	-0.00532274	-0.00435638	
       181	-0.00403426	-0.00306790	-0.00757757	-0.00113519	
       182	0.00047541	-0.00532274	-0.00918817	0.00369660	
       183	0.00144177	-0.00854393	-0.01047664	0.00627356	
       184	-0.00789969	-0.00339002	-0.00983241	0.00466296	
       185	-0.01852963	-0.00210154	-0.01112088	0.00434084	
       186	0.00401872	-0.00596698	-0.00628909	0.00530720	
       187	-0.00693333	-0.00403426	-0.00371214	0.00627356	
       188	-0.01273148	0.00079753	-0.00339002	0.00466296	
       189	-0.00339002	0.00530720	0.00144177	-0.00242366	
       190	0.00659567	0.00659567	0.00176389	-0.00500062	
       191	0.01303806	0.00788415	0.01078323	-0.00371214	
       192	0.01336018	0.01400442	0.00885051	-0.00242366	
       193	0.01271594	0.01078323	0.00852839	-0.00339002	
       194	0.01142746	0.00369660	0.00949475	-0.00306790	
       195	0.01722561	-0.01337572	0.00981687	-0.00242366	
       196	0.01625925	-0.02078446	0.00788415	-0.00016883	
       197	-0.00242366	-0.00789969	0.00562932	0.00144177	
       198	-0.00886605	-0.00467850	-0.00242366	-0.00016883	
       199	-0.01112088	-0.00113519	-0.00274578	0.00208601	
       200	-0.01369784	-0.00145731	-0.00532274	0.00659567	
       201	-0.03624618	0.00079753	-0.00951029	0.00562932	
       202	-0.01885174	-0.00306790	-0.01144300	0.00530720	
       203	0.00047541	-0.00661121	-0.01144300	0.00111965	
       204	0.00434084	-0.00789969	-0.01305360	-0.00016883	
       205	0.01690349	-0.00757757	-0.01144300	-0.00177943	
       206	0.01883621	-0.00693333	-0.00951029	-0.00016883	
       207	0.02978826	-0.00371214	-0.00661121	-0.00628909	
       208	0.03365369	-0.00983241	-0.00757757	-0.00693333	
       209	0.01497078	-0.00177943	0.00079753	-0.00113519	
       210	-0.02432777	0.01368230	0.00466296	0.00434084	
       211	0.00401872	0.00144177	0.00820627	0.00337448	
       212	-0.01530843	-0.01047664	0.01078323	0.00240812	
       213	-0.04752036	0.00176389	0.00949475	0.00111965	
       214	-0.05170791	0.00240812	0.00788415	0.00466296	
       215	-0.03592406	-0.00918817	0.00949475	0.00144177	
       216	-0.02175082	-0.00886605	0.00885051	-0.00242366	
       217	-0.03656830	0.05008177	0.00756203	-0.00435638	
       218	-0.01401996	0.05587992	0.00176389	-0.00435638	
       219	0.01658137	0.02560071	0.00144177	-0.00628909	
       220	0.03011038	0.00466296	-0.00274578	-0.00757757	
       221	0.02012468	-0.00306790	-0.00951029	-0.00532274	
       222	0.01013899	0.00434084	-0.00886605	-0.00145731	
       223	0.00434084	-0.00274578	-0.00983241	-0.00177943	
       224	0.00659567	-0.01691903	-0.01401996	-0.00081307	
       225	0.00530720	-0.02336141	-0.01015453	0.00401872	
       226	-0.00081307	-0.01466419	-0.00854393	0.00498508	
       227	0.01883621	-0.01337572	-0.00661121	0.00788415	
       228	0.00949475	-0.02046234	-0.00435638	0.00208601	
       229	0.00627356	0.00369660	-0.00242366	-0.00113519	
       230	-0.00435638	0.03204310	0.00595144	-0.00339002	
       231	-0.00725545	0.02334588	0.00659567	-0.00210154	
       232	-0.00145731	-0.00113519	0.00820627	-0.00145731	
       233	0.00530720	-0.00210154	0.01078323	-0.00500062	
       234	0.00015329	0.00369660	0.00788415	-0.00500062	
       235	-0.00210154	-0.00693333	0.00756203	-0.00564486	
       236	0.00305236	0.00369660	0.00562932	0.00111965	
       237	0.00530720	0.03236521	0.00595144	0.00369660	
       238	0.01980256	0.01529289	0.00047541	0.00208601	
       239	0.03590853	-0.01047664	-0.00145731	0.01110534	
       240	0.02141316	-0.00822181	-0.00500062	0.00401872	
       241	0.00885051	-0.01724115	-0.00500062	-0.00822181	
       242	-0.00564486	-0.01756327	-0.00789969	-0.00886605	
       243	-0.01208724	-0.01498631	-0.01176512	-0.00854393	
       244	0.00595144	-0.02175082	-0.01047664	-0.00693333	
       245	-0.00274578	-0.02271718	-0.00789969	-0.00113519	
       246	-0.01273148	-0.01240936	-0.00661121	0.00079753	
       247	-0.00951029	-0.00661121	-0.00403426	-0.00049095	
       248	-0.00822181	0.01915833	0.00015329	-0.00016883	
       249	-0.00242366	0.04557210	0.00208601	0.00208601	
       250	0.00788415	0.03172098	0.00466296	0.00595144	
       251	0.01497078	0.01336018	0.00756203	0.00723991	
       252	0.00949475	0.01497078	0.00981687	0.00691779	
       253	0.00434084	0.00917263	0.00852839	0.00176389	
       254	-0.00532274	-0.00339002	0.01110534	-0.00113519	
       255	-0.01015453	-0.01047664	0.00788415	-0.00306790	
       256	-0.00467850	-0.01208724	0.00659567	-0.00177943	
       257	-0.00274578	-0.02271718	0.00401872	-0.00242366	
       258	0.00273024	-0.02980380	0.00434084	-0.00242366	
       259	0.00466296	-0.01434208	-0.00210154	-0.00177943	
       260	0.00144177	-0.01595267	-0.00725545	0.00144177	
       261	-0.01337572	-0.01305360	-0.01047664	0.00208601	
       262	-0.03044804	-0.01112088	-0.01208724	0.00111965	
       263	-0.03366923	-0.01498631	-0.01240936	0.00079753	
       264	-0.02529413	-0.00854393	-0.01305360	0.00047541	
       265	0.00788415	-0.00371214	-0.01047664	0.00047541	
       266	0.03333157	0.00595144	-0.00983241	-0.00113519	
       267	0.00917263	0.00562932	-0.00532274	-0.00016883	
       268	-0.00177943	0.00949475	-0.00177943	-0.00371214	
       269	-0.00049095	0.00305236	0.00144177	-0.00371214	
       270	0.00305236	-0.00242366	0.00627356	-0.00306790	
       271	0.00756203	-0.00693333	0.00820627	-0.00371214	
       272	0.00788415	-0.00628909	0.00756203	0.00047541	
       273	0.00466296	-0.00500062	0.00885051	0.00079753	
       274	0.00659567	-0.00403426	0.01303806	0.00079753	
       275	0.00369660	0.00111965	0.01013899	0.00176389	
       276	0.00466296	0.01078323	0.00820627	0.00273024	
       277	0.00273024	0.01013899	0.00369660	-0.00145731	
       278	0.00498508	0.00208601	0.00047541	-0.00274578	
       279	0.00723991	0.00079753	-0.00306790	0.00047541	
       280	0.00079753	0.00176389	-0.00435638	0.00788415	
       281	-0.00951029	0.00401872	-0.00854393	0.00595144	
       282	-0.01144300	-0.00113519	-0.00725545	0.00434084	
       283	-0.00725545	-0.00016883	-0.01466419	-0.00274578	
       284	-0.00177943	-0.00145731	-0.01563055	-0.00339002	
       285	-0.00371214	-0.00113519	-0.01079876	-0.00274578	
       286	-0.00177943	-0.00016883	-0.00854393	-0.00274578	
       287	0.00079753	0.00434084	-0.00661121	-0.00210154	
       288	0.00337448	0.00756203	-0.00081307	-0.00274578	
       289	0.00079753	0.00885051	0.00240812	-0.00306790	
       290	-0.00339002	0.01078323	0.00691779	0.00111965	
       291	0.00144177	0.00595144	0.00885051	0.00144177	
       292	0.00079753	0.00305236	0.01110534	-0.00177943	
       293	-0.00210154	-0.00822181	0.01271594	0.00273024	
       294	-0.00274578	-0.01563055	0.01207170	-0.00435638	
       295	-0.00500062	-0.00886605	0.00949475	-0.00564486	
       296	-0.00016883	-0.00532274	0.00530720	0.00047541	
       297	-0.00145731	-0.00500062	0.00208601	0.00273024	
       298	-0.00983241	-0.01015453	-0.00145731	0.00047541	
       299	-0.01401996	-0.01981810	-0.00177943	0.00144177	
       300	-0.00951029	-0.02014022	-0.00532274	-0.00016883	
       301	-0.00725545	-0.01820751	-0.00983241	0.00208601	
       302	-0.01208724	-0.01724115	-0.01015453	0.00562932	
       303	-0.01079876	0.01819197	-0.01079876	0.00627356	
       304	-0.00564486	0.03462005	-0.01305360	0.00627356	
       305	-0.00081307	0.01142746	-0.00886605	0.00691779	
       306	0.00111965	0.00756203	-0.00918817	-0.00177943	
       307	0.00820627	0.00047541	-0.00467850	-0.00242366	
       308	0.00885051	0.01110534	-0.00274578	-0.00306790	
       309	0.00949475	0.01271594	0.00337448	-0.00435638	
       310	0.00659567	0.00369660	0.00466296	-0.00177943	
       311	0.00659567	-0.00081307	0.00885051	0.00530720	
       312	0.01915833	-0.00306790	0.00917263	0.00369660	
       313	0.02914402	-0.00306790	0.01078323	0.00240812	
       314	0.01561501	0.00240812	0.01110534	-0.00274578	
       315	0.00015329	0.01464866	0.00981687	-0.00661121	
       316	-0.00693333	0.01400442	0.00530720	-0.00661121	
       317	-0.02110658	0.00820627	0.00723991	-0.00435638	
       318	-0.03978949	0.00240812	0.00111965	-0.00403426	
       319	0.00079753	-0.00113519	-0.00242366	-0.00596698	
       320	-0.01885174	0.00788415	-0.00467850	-0.00435638	
       321	-0.04333281	0.00530720	-0.01112088	0.00015329	
       322	-0.02529413	-0.00339002	-0.01176512	-0.00210154	
       323	-0.01208724	-0.01691903	-0.01305360	0.00047541	
       324	-0.00693333	-0.01659691	-0.01273148	0.00079753	
       325	-0.00435638	-0.01917386	-0.01144300	0.00595144	
       326	0.01593713	-0.00983241	-0.00789969	0.01303806	
       327	0.02205740	0.00240812	-0.00467850	0.01625925	
       328	-0.00049095	0.02527859	-0.00081307	0.01400442	
       329	-0.01047664	0.02334588	0.00401872	0.00852839	
       330	0.00498508	0.00595144	0.00530720	0.00659567	
       331	0.01851409	-0.01563055	0.00498508	0.00273024	
       332	0.04782694	-0.01820751	0.00885051	0.00079753	
       333	0.01400442	-0.00306790	0.01174958	0.00079753	
       334	-0.00145731	0.00852839	0.01207170	0.00079753	
       335	0.00885051	0.01046111	0.00756203	0.00079753	
       336	-0.00145731	0.03719700	0.00852839	-0.00371214	
       337	-0.01530843	0.00498508	0.00723991	-0.00564486	
       338	0.01271594	0.00788415	0.00208601	-0.00725545	
       339	0.01851409	0.00885051	-0.00145731	-0.01079876	
       340	0.00949475	0.00691779	-0.00661121	-0.00789969	
       341	0.00498508	-0.00049095	-0.00951029	-0.00242366	
       342	-0.00628909	-0.00596698	-0.01176512	0.00015329	
       343	-0.01434208	-0.00500062	-0.01273148	-0.00016883	
       344	-0.01595267	-0.00532274	-0.01176512	-0.00113519	
       345	-0.01369784	-0.01305360	-0.00886605	-0.00145731	
       346	-0.01981810	-0.03109228	-0.01047664	-0.00242366	
       346	-0.01047664	-0.01208724	-0.00693333	-0.00403426	
       347	0.00723991	-0.00371214	-0.00339002	-0.00145731	
       348	0.01400442	-0.00822181	-0.00049095	0.00369660	
       349	0.02141316	-0.00918817	0.00659567	0.00498508	
       350	0.02237952	0.00562932	0.00788415	-0.00371214	
       351	0.01883621	0.01658137	0.01046111	-0.00306790	
       352	0.02366799	-0.00789969	0.01078323	0.00144177	
       353	0.01851409	-0.00532274	0.00981687	0.00466296	
       354	0.00015329	0.01625925	0.01013899	0.00208601	
       355	-0.01176512	0.00788415	0.00917263	-0.00081307	
       356	-0.01273148	-0.00789969	0.00691779	0.00047541	
       357	-0.01498631	-0.01305360	0.00240812	0.00079753	
       358	-0.01079876	-0.00693333	-0.00339002	-0.00177943	
       359	-0.00918817	0.00176389	-0.00725545	-0.00210154	
       360	-0.01627479	0.01078323	-0.00789969	-0.00177943	
       361	-0.01756327	0.01174958	-0.01047664	0.00273024	
       362	-0.02336141	0.01819197	-0.01047664	0.00305236	
       363	-0.02271718	0.01497078	-0.01208724	-0.00049095	
       364	-0.00725545	0.00562932	-0.01079876	-0.00435638	
       365	0.00208601	-0.00274578	-0.00757757	-0.00403426	
       366	0.00079753	-0.01401996	-0.00596698	-0.00403426	
       367	-0.00049095	-0.01305360	-0.00016883	-0.00242366	
       368	0.01078323	-0.01530843	0.00111965	-0.00274578	
       369	0.01690349	-0.02078446	0.00595144	-0.00306790	
       370	0.01110534	-0.01047664	0.00981687	-0.00049095	
       371	0.00401872	-0.01047664	0.01078323	0.00079753	
       372	-0.00435638	-0.00596698	0.01078323	0.00144177	
       373	-0.00500062	-0.00951029	0.01078323	-0.00210154	
       374	0.00015329	-0.00822181	0.00949475	-0.00435638	
       375	0.00498508	-0.00564486	0.00691779	0.00176389	
       377	0.00723991	-0.01498631	0.00176389	0.00401872	
       377	0.00885051	-0.02980380	0.00015329	0.00852839	
       378	0.00562932	-0.01530843	-0.00371214	0.00595144	
       379	0.00305236	-0.00854393	-0.00661121	0.00176389	
       380	0.00015329	-0.01337572	-0.00789969	-0.00467850	
       381	0.00176389	-0.00435638	-0.01208724	-0.00306790	
       382	0.00111965	0.01464866	-0.01466419	0.00144177	
       383	-0.00532274	0.00208601	-0.01401996	-0.00016883	
       384	-0.00854393	0.02334588	-0.01144300	-0.00081307	
       385	-0.00274578	0.05008177	-0.00854393	0.00369660	
       386	-0.00177943	0.01593713	-0.00564486	0.00852839	
       387	0.00240812	-0.01208724	-0.00113519	0.00466296	
       388	0.00047541	-0.01369784	0.00176389	0.00144177	
       389	-0.00113519	-0.00532274	0.00659567	0.00079753	
       390	-0.00210154	0.01819197	0.00885051	-0.00274578	
       391	0.00047541	0.01110534	0.01013899	-0.00242366	
       392	0.00337448	0.01658137	0.01078323	-0.00532274	
       393	0.00208601	0.01013899	0.00885051	-0.00371214	
       394	0.00337448	0.00659567	0.00756203	-0.00467850	
       395	0.00144177	0.00562932	0.00627356	-0.00403426	
       396	-0.00789969	-0.01047664	0.00273024	-0.00274578	
       397	-0.01079876	-0.00564486	0.00144177	-0.00435638	
       398	-0.00951029	-0.00210154	-0.00177943	-0.00113519	
       399	-0.01079876	-0.00532274	-0.00725545	0.00273024	
       400	-0.00661121	-0.00564486	-0.00822181	0.00723991	
       401	0.00208601	-0.01208724	-0.01208724	0.00691779	
       402	0.00434084	-0.01337572	-0.01208724	0.00530720	
       403	-0.00306790	-0.00242366	-0.01112088	0.00144177	
       404	0.00240812	-0.00532274	-0.01208724	-0.00016883	
       405	0.01207170	0.00015329	-0.00822181	-0.00467850	
       406	0.01690349	0.00562932	-0.00467850	-0.00467850	
       407	0.00691779	0.02141316	0.00015329	0.00111965	
       408	0.00498508	0.02946614	0.00530720	-0.00113519	
       409	0.00595144	0.02302376	0.00949475	-0.00016883	
       410	0.00530720	0.00723991	0.01110534	0.00498508	
       411	0.00498508	-0.01595267	0.01013899	0.00659567	
       412	-0.00403426	-0.00371214	0.01271594	0.00079753	
       413	-0.00757757	0.00852839	0.01174958	-0.00242366	
       414	0.00047541	-0.00951029	0.00595144	-0.00306790	
       415	0.00949475	-0.02690473	0.00562932	0.00305236	
       416	0.01207170	-0.00789969	0.00208601	0.00530720	
       417	-0.00564486	-0.00757757	-0.00113519	0.00466296	
       418	-0.01949598	-0.00693333	-0.00500062	-0.00113519	
       419	-0.01498631	-0.00983241	-0.00918817	-0.00145731	
       420	-0.00596698	-0.00789969	-0.01273148	-0.00371214	
       421	-0.00693333	-0.00564486	-0.01015453	-0.00177943	
       422	-0.01820751	-0.00210154	-0.01498631	-0.00049095	
       423	-0.01917386	-0.00854393	-0.01208724	0.00240812	
       424	0.00047541	-0.00435638	-0.00918817	0.00562932	
       425	0.01786985	-0.00242366	-0.00822181	0.00208601	
       426	0.01239382	-0.00564486	-0.00918817	-0.00564486	
       427	0.01239382	-0.00564486	-0.00113519	-0.00306790	
       428	0.00466296	0.00595144	0.00401872	0.00047541	
       429	-0.00403426	0.03172098	0.00691779	-0.00049095	
       430	-0.01176512	0.01851409	0.01239382	-0.00339002	
       431	0.00788415	-0.00403426	0.00949475	-0.00951029	
       432	0.02817766	0.00047541	0.01174958	-0.00886605	
       433	0.00788415	0.01658137	0.01174958	-0.00854393	
       434	-0.00725545	-0.00016883	0.01046111	-0.00596698	
       435	-0.03012592	0.00434084	0.00820627	-0.00242366	
       436	-0.03817890	0.02076892	0.00401872	-0.00210154	
       437	-0.01852963	0.00820627	-0.00016883	0.00015329	
       438	-0.02078446	0.00595144	-0.00371214	-0.00177943	
       439	-0.03141439	0.01593713	-0.00596698	-0.00210154	
       440	-0.01144300	0.02044680	-0.01112088	-0.00145731	
       441	0.00047541	0.02656707	-0.01112088	0.00079753	
       442	0.01207170	0.01013899	-0.01466419	0.00401872	
       444	0.00691779	-0.00016883	-0.01369784	0.00595144	
       444	0.01110534	-0.01079876	-0.00822181	0.00305236	
       445	0.01174958	-0.01885174	-0.00532274	0.00337448	
       447	0.01464866	-0.01595267	-0.00177943	0.00240812	
       447	0.01239382	-0.01369784	0.00111965	0.00401872	
       448	0.01529289	-0.02464989	0.00466296	0.00176389	
       449	0.00176389	-0.01466419	0.00562932	-0.00081307	
       450	-0.02271718	0.01786985	0.00820627	-0.00081307	
       451	-0.02239506	0.03494217	0.01142746	0.00434084	
       452	0.00530720	0.01658137	0.01239382	0.00723991	
       453	0.03719700	0.00595144	0.01013899	0.00562932	
       454	0.01722561	0.00466296	0.00820627	0.00015329	
       456	0.00820627	-0.01337572	0.00788415	0.00144177	
       457	0.00691779	-0.01659691	0.00144177	0.00369660	
       458	0.00723991	-0.01176512	-0.00242366	0.00659567	
       459	0.01239382	-0.01434208	-0.00306790	-0.00016883	
       460	0.00498508	-0.03205863	-0.00628909	0.00015329	
       461	-0.02754896	-0.02529413	-0.01112088	-0.00306790	
       462	-0.02078446	-0.01144300	-0.00918817	-0.00822181	
       463	0.01915833	-0.01305360	-0.01144300	-0.00596698	
       464	0.00305236	-0.01756327	-0.01305360	-0.00306790	
       465	-0.00725545	0.00788415	-0.00822181	-0.00242366	
       466	-0.00596698	0.02946614	-0.00951029	-0.00049095	
       467	-0.00177943	0.00369660	-0.00564486	0.00015329	
       468	-0.00564486	-0.01079876	-0.00113519	0.00111965	
       469	-0.01305360	-0.01047664	0.00369660	0.00144177	
       470	0.01078323	0.00627356	0.00530720	0.00047541	
       471	0.01658137	0.01690349	0.01046111	-0.00016883	
       472	0.01110534	0.00176389	0.01013899	-0.00532274	
       473	0.00917263	-0.00435638	0.01142746	-0.00467850	
       474	0.00401872	-0.00596698	0.01207170	0.00015329	
       475	0.00208601	-0.00532274	0.00820627	-0.00242366	
       476	-0.00210154	-0.00725545	0.00659567	-0.00081307	
       477	-0.00177943	-0.00371214	0.00466296	-0.00242366	
       478	-0.00500062	-0.00854393	-0.00145731	-0.00371214	
       479	-0.01305360	-0.00210154	-0.00371214	-0.00306790	
       480	-0.01498631	0.00337448	-0.00596698	-0.00081307	
       481	-0.01047664	-0.00177943	-0.00886605	0.00079753	
       482	-0.00725545	-0.00951029	-0.01176512	-0.00210154	
       483	-0.00403426	-0.01015453	-0.01208724	0.00111965	
       484	0.01174958	0.00305236	-0.01240936	-0.00113519	
       485	0.01464866	0.01432654	-0.01015453	-0.00210154	
       486	0.00917263	-0.00339002	-0.00789969	0.00047541	
       487	-0.01208724	-0.00500062	-0.00532274	0.00047541	
       488	-0.02787108	0.00111965	-0.00016883	-0.00725545	
       489	-0.01240936	0.00337448	0.00079753	-0.00274578	
       490	0.02399011	0.00466296	0.00659567	0.00305236	
       491	0.03268733	0.02463435	0.00917263	0.00498508	
       492	0.01303806	0.03590853	0.01271594	0.00401872	
       493	0.02237952	0.00047541	0.01464866	-0.00467850	
       494	0.01432654	-0.01691903	0.01174958	-0.00210154	
       495	-0.01240936	-0.00789969	0.00981687	0.00015329	
       496	-0.02915956	0.00885051	0.00788415	0.00466296	
       497	-0.02046234	0.00466296	0.00369660	0.00208601	
       498	-0.02336141	0.00401872	0.00273024	0.00434084	
       499	-0.01756327	0.01078323	-0.00242366	0.00305236	
       500	0.01658137	-0.00564486	-0.00693333	0.00659567	
       501	0.02656707	0.00401872	-0.01079876	0.01561501	
       502	0.02366799	-0.00306790	-0.01498631	0.01464866	
       503	0.00659567	-0.00983241	-0.01079876	0.00917263	
       504	-0.00371214	-0.00822181	-0.01144300	0.00337448	
       505	-0.00500062	0.00144177	-0.00983241	0.00144177	
       506	-0.00886605	0.00144177	-0.00661121	-0.00435638	
       507	0.01110534	-0.00210154	-0.00177943	-0.01240936	
       508	-0.01079876	0.01400442	0.00240812	-0.01434208	
       509	-0.02046234	0.00917263	0.00337448	-0.00757757	
       510	-0.01756327	0.01336018	0.00401872	-0.00467850	
       511	-0.02883744	0.03333157	0.00788415	-0.00210154	
       512	-0.03721254	0.01013899	0.01142746	0.00111965	
       513	-0.02303929	0.01368230	0.01142746	0.00337448	
       514	-0.00500062	-0.01305360	0.00949475	0.00401872	
       515	0.00917263	-0.02883744	0.00659567	-0.00049095	
       516	0.01013899	-0.02819320	0.00434084	-0.00210154	
       517	0.01722561	-0.02722684	0.00144177	-0.00306790	
       518	0.01786985	-0.03527983	-0.00113519	-0.00339002	
       519	0.00595144	-0.03527983	-0.00339002	-0.00210154	
       520	-0.00016883	0.00788415	-0.00886605	0.00144177	
       521	-0.00918817	0.07359648	-0.01305360	0.00047541	
       522	0.00498508	0.03268733	-0.01273148	0.00562932	
       523	0.02141316	0.01529289	-0.01530843	0.00434084	
       524	0.01722561	-0.00145731	-0.01466419	0.00240812	
       525	0.00337448	-0.01691903	-0.01208724	-0.00113519	
       526	-0.01273148	-0.01530843	-0.00725545	-0.00113519	
       527	-0.00210154	-0.03012592	-0.00403426	-0.00306790	
       528	0.00659567	-0.03141439	0.00015329	-0.00274578	
       529	0.00627356	-0.03044804	0.00079753	-0.00242366	
       530	-0.00693333	-0.01627479	0.00401872	-0.00274578	
       531	-0.01820751	0.02399011	0.00949475	-0.00049095	
       532	0.00595144	0.01239382	0.01046111	-0.00371214	
       533	0.00627356	0.02431223	0.01174958	-0.00532274	
       534	-0.00016883	0.01142746	0.01078323	-0.00435638	
       535	0.00079753	0.01786985	0.00981687	-0.00339002	
       536	-0.00725545	0.02141316	0.00659567	-0.00628909	
       537	0.00401872	0.00981687	0.00691779	-0.00177943	
       538	0.02592283	-0.00854393	-0.00210154	-0.00210154	
       539	0.04041820	-0.02400565	-0.00467850	-0.00339002	
       540	0.03236521	-0.01627479	-0.00789969	0.00369660	
       541	0.00756203	0.02431223	-0.01273148	0.00401872	
       542	-0.00951029	0.01754773	-0.01273148	0.00595144	
       543	-0.00274578	-0.01530843	-0.01337572	0.00530720	
       544	-0.00951029	-0.00339002	-0.01240936	-0.00049095	
       545	-0.02561625	-0.00371214	-0.00757757	0.00047541	
       546	-0.06684751	-0.00725545	-0.00435638	-0.00500062	
       547	-0.04848671	-0.01885174	-0.00532274	-0.00854393	
       548	-0.00177943	-0.01337572	-0.00016883	-0.01401996	
       549	-0.01788539	0.06328866	0.00208601	-0.00049095	
       550	-0.01369784	0.04686058	0.00305236	0.00723991	
       551	-0.00822181	0.02334588	0.01013899	0.00981687	
       552	-0.02110658	0.00401872	0.01464866	0.00079753	
       553	-0.01112088	0.00498508	0.01046111	-0.00016883	
       554	0.01722561	0.00111965	0.01046111	-0.00049095	
       555	0.02431223	0.00917263	0.01078323	-0.00306790	
       556	0.02044680	0.00240812	0.00723991	-0.00177943	
       557	0.01658137	-0.00564486	0.00530720	-0.00339002	
       558	0.01529289	-0.00693333	0.00079753	-0.00403426	
       559	0.01819197	-0.01015453	-0.00081307	-0.00306790	
       560	0.02721131	-0.01401996	-0.00532274	0.00111965	
       561	0.03300945	-0.01659691	-0.00951029	-0.00274578	
       562	0.03107674	-0.02078446	-0.01144300	-0.00403426	
       563	0.02753343	-0.01917386	-0.01240936	-0.00500062	
       564	0.02205740	-0.01530843	-0.01176512	-0.00145731	
       565	0.02237952	-0.00822181	-0.01015453	-0.00628909	
       566	-0.01724115	-0.00918817	-0.00757757	0.00079753	
       567	-0.02626049	-0.01595267	-0.00725545	0.00111965	
       568	-0.01627479	-0.01047664	-0.00210154	0.00627356	
       569	-0.04816459	-0.00177943	0.00562932	0.00723991	
       570	-0.03141439	0.00434084	0.00466296	0.00530720	
       571	-0.00113519	0.00498508	0.00756203	0.00498508	
       572	0.01046111	0.01271594	0.00852839	0.01239382	
       573	0.00111965	0.02560071	0.00917263	0.01819197	
       574	-0.01015453	-0.01273148	0.00981687	0.01110534	
       575	-0.01337572	-0.01885174	0.00949475	0.00530720	
       576	-0.00532274	-0.01208724	0.00273024	-0.00049095	
       577	0.00240812	-0.01401996	0.00208601	-0.00339002	
       578	-0.00757757	-0.01273148	-0.00306790	0.00176389	
       579	-0.01691903	-0.01144300	-0.00693333	0.00659567	
       580	-0.02078446	-0.00596698	-0.00467850	0.00273024	
       581	-0.01981810	-0.00339002	-0.00854393	-0.00306790	
       582	-0.00274578	-0.00596698	-0.01240936	-0.00242366	
       583	0.00788415	-0.00951029	-0.01369784	-0.00274578	
       584	0.03204310	-0.01337572	-0.01208724	-0.00435638	
       585	0.02817766	-0.02014022	-0.01047664	-0.00435638	
       586	0.01464866	-0.03399135	-0.00661121	-0.00306790	
       587	0.01400442	-0.02690473	-0.00435638	-0.00049095	
       588	0.01078323	-0.02271718	-0.00274578	0.00208601	
       589	-0.00822181	0.05620204	0.00401872	-0.00403426	
       590	-0.00757757	0.08841397	0.00981687	-0.00467850	
       591	-0.01498631	0.04814906	0.01432654	-0.00500062	
       592	-0.00822181	-0.02497201	0.01207170	-0.00403426	
       593	-0.01530843	-0.02014022	0.01239382	-0.00339002	
       594	-0.03044804	0.00466296	0.01174958	-0.00274578	
       595	-0.01627479	0.01207170	0.00820627	-0.00435638	
       596	0.00434084	0.04138455	0.00562932	-0.00403426	
       597	0.01948044	0.02882190	0.00627356	-0.00403426	
       598	0.02109104	0.02463435	0.00208601	-0.00306790	
       599	0.02237952	0.00659567	-0.00435638	-0.00210154	
       600	0.01786985	-0.00467850	-0.00596698	0.00047541	
       601	0.01658137	-0.00886605	-0.01112088	-0.00177943	
       602	0.00885051	-0.00435638	-0.01144300	-0.00016883	
       603	0.00852839	-0.00886605	-0.01208724	0.00079753	
       604	-0.00564486	-0.00918817	-0.01112088	-0.00177943	
       605	-0.01724115	-0.00403426	-0.00757757	-0.00403426	
       606	-0.01240936	-0.00339002	-0.00693333	0.00015329	
       607	0.00562932	-0.01369784	-0.01144300	0.00273024	
       608	0.00434084	-0.01724115	0.00240812	0.00788415	
       609	0.00627356	-0.01530843	0.00273024	0.01207170	
       610	0.00498508	-0.01047664	0.00466296	0.00756203	
       611	0.00273024	-0.00725545	0.00885051	0.00434084	
       612	-0.00016883	-0.01047664	0.01207170	-0.00274578	
       613	-0.00596698	-0.00822181	0.01271594	-0.00274578	
       614	-0.01079876	-0.00532274	0.00530720	-0.00242366	
       615	-0.01401996	-0.00274578	0.00466296	-0.00435638	
       616	-0.00789969	-0.01563055	0.00466296	-0.00145731	
       617	-0.01273148	-0.00822181	0.00337448	0.00079753	
       618	0.00176389	-0.00210154	-0.00564486	0.00240812	
       619	-0.00145731	0.00885051	-0.00339002	-0.00467850	
       620	-0.00564486	0.03107674	-0.00371214	-0.00918817	
       621	-0.02175082	0.03172098	-0.01047664	-0.00822181	
       622	0.00111965	0.03365369	-0.01015453	-0.00306790	
       623	-0.00435638	0.02817766	-0.01047664	-0.00274578	
       624	-0.00403426	0.00079753	-0.01208724	-0.00177943	
       625	-0.00145731	-0.00822181	-0.01079876	0.00369660	
       626	-0.00789969	-0.00564486	-0.00983241	0.00369660	
       627	-0.01112088	-0.00210154	-0.00306790	0.00144177	
       628	-0.01015453	0.00144177	0.00305236	0.00240812	
       629	0.01593713	-0.00016883	0.00176389	0.00079753	
       630	0.00756203	0.01464866	0.00691779	0.00015329	
       631	0.00305236	0.00949475	0.01207170	-0.00016883	
       632	0.00369660	-0.00081307	0.01046111	0.00176389	
       633	0.01400442	-0.00339002	0.01142746	-0.00145731	
       634	0.01754773	0.00401872	0.01174958	-0.00596698	
       635	0.00337448	0.00144177	0.00917263	-0.00532274	
       636	0.00723991	-0.00693333	0.00562932	-0.00274578	
       637	0.01336018	-0.01401996	0.00273024	-0.00532274	
       638	0.00852839	-0.00693333	-0.00242366	-0.00242366	
       639	0.00369660	-0.00371214	-0.00242366	-0.00435638	
       640	0.01368230	-0.00661121	-0.00693333	-0.00532274	
       641	0.01303806	-0.01176512	-0.00951029	-0.00789969	
       642	0.00852839	-0.01305360	-0.01144300	0.00079753	
       643	0.00723991	-0.01466419	-0.01466419	0.01013899	
       644	-0.02175082	-0.01015453	-0.01112088	0.00981687	
       645	-0.02497201	-0.01337572	-0.00983241	0.00756203	
       646	-0.02561625	-0.01498631	-0.00693333	0.00530720	
       647	-0.00564486	-0.00081307	-0.00467850	0.00627356	
       648	-0.01691903	-0.00210154	-0.00113519	0.00305236	
       649	-0.03334711	-0.00081307	0.00273024	0.00498508	
       650	-0.02626049	0.00240812	0.00820627	0.00659567	
       651	-0.00886605	0.00595144	0.00852839	0.00144177	
       652	0.00240812	-0.00210154	0.00691779	-0.00177943	
       653	0.01110534	0.00401872	0.01174958	-0.00049095	
       654	0.00917263	0.02076892	0.01400442	-0.00113519	
       655	0.00691779	-0.00983241	0.01046111	0.00047541	
       656	0.00176389	-0.00822181	0.00659567	0.00144177	
       657	-0.00049095	-0.01176512	0.00240812	-0.00049095	
       658	-0.00210154	0.00949475	-0.00306790	0.00305236	
       659	-0.00467850	0.01497078	-0.00403426	0.00498508	
       660	-0.00757757	0.00305236	-0.00886605	0.00498508	
       661	-0.01466419	0.01722561	-0.01047664	-0.00532274	
       662	-0.00693333	0.03719700	-0.01337572	-0.00274578	
       663	0.00401872	0.02076892	-0.01401996	0.00144177	
       664	0.00144177	0.00659567	-0.01240936	0.00369660	
       665	-0.00596698	-0.01240936	-0.00789969	-0.00081307	
       666	-0.00306790	-0.02078446	-0.00596698	-0.00049095	
       667	0.01271594	-0.03624618	-0.00435638	0.00047541	
       668	0.02914402	-0.04494340	0.00079753	0.00079753	
       669	0.01851409	-0.02915956	0.00111965	-0.00016883	
       670	0.00498508	0.04557210	0.00530720	-0.00049095	
       671	-0.00016883	0.05008177	0.00949475	-0.00081307	
       672	-0.00049095	0.01690349	0.01046111	-0.00403426	
       673	-0.01176512	0.01497078	0.01239382	-0.00854393	
       674	-0.01047664	0.01658137	0.01303806	-0.00854393	
       675	-0.01788539	0.01110534	0.00788415	-0.00661121	
       676	-0.00113519	-0.00564486	0.00723991	-0.00371214	
       677	0.01948044	-0.00822181	0.00208601	-0.00822181	
       678	0.02753343	0.00627356	-0.00274578	-0.00564486	
       679	-0.00081307	0.01754773	-0.00081307	-0.00661121	
       680	-0.00789969	0.01754773	-0.00725545	-0.00532274	
       681	0.00949475	0.00111965	-0.01144300	-0.00210154	
       682	0.03590853	-0.00371214	-0.01176512	-0.00242366	
       683	0.03623065	-0.03141439	-0.01401996	-0.00306790	
       684	0.01851409	-0.03817890	-0.01208724	-0.00435638	
       685	0.00820627	-0.02819320	-0.00886605	-0.00145731	
       686	0.00595144	-0.01885174	-0.00757757	0.00240812	
       687	-0.00693333	-0.01788539	-0.00403426	0.00466296	
       688	-0.01144300	-0.01434208	-0.00016883	0.00530720	
       689	-0.03785678	-0.00789969	0.00273024	0.00401872	
       690	-0.03592406	-0.00628909	0.00659567	0.00208601	
       691	-0.03624618	0.00369660	0.00917263	0.00079753	
       692	-0.01563055	0.00820627	0.01400442	0.00176389	
       693	0.01013899	0.02141316	0.01207170	0.00176389	
       694	0.03751912	0.01464866	0.01207170	-0.00242366	
       695	0.02978826	-0.00016883	0.00723991	-0.00274578	
       696	0.01336018	-0.00435638	0.00820627	-0.00339002	
       697	-0.00306790	-0.00564486	0.00337448	-0.00113519	
       698	0.00240812	-0.00210154	-0.00081307	0.00369660	
       699	0.00273024	-0.00016883	-0.00177943	0.00401872	
       700	0.02978826	0.00530720	-0.00467850	-0.00177943	
       701	0.02237952	0.00337448	-0.01112088	-0.00242366	
       702	-0.01852963	-0.00274578	-0.01401996	0.00305236	
       703	-0.06523691	-0.00339002	-0.01401996	0.00659567	
       704	-0.01144300	-0.00177943	-0.01240936	0.00691779	
       705	0.00305236	0.00401872	-0.00822181	0.00498508	
       706	-0.02722684	-0.00210154	-0.00757757	0.00369660	
       707	-0.03785678	-0.00661121	-0.00435638	0.00176389	
       708	-0.03592406	0.00305236	0.00015329	0.00079753	
       709	-0.00951029	0.02721131	0.00466296	-0.00145731	
       710	0.02044680	0.02560071	0.00723991	-0.00210154	
       711	0.01497078	0.01174958	0.01110534	0.00079753	
       712	0.00852839	0.00079753	0.01110534	0.00015329	
       713	0.00885051	-0.00403426	0.01078323	-0.00145731	
       714	0.01046111	-0.03495771	0.01336018	-0.00435638	
       715	0.00530720	-0.02303929	0.00917263	-0.00049095	
       716	0.00401872	-0.01305360	0.00434084	-0.00403426	
       716	0.00047541	0.00530720	0.00240812	-0.00435638	
       718	-0.00532274	0.02592283	-0.00113519	-0.00500062	
       719	-0.00081307	0.01046111	-0.00500062	-0.00306790	
       720	0.00917263	-0.01434208	-0.00693333	0.00208601	
       721	0.00949475	-0.01917386	-0.01176512	-0.00016883	
       722	0.00466296	-0.02175082	-0.01498631	-0.00274578	
       723	-0.00467850	-0.00725545	-0.01208724	0.00208601	
       724	-0.01563055	0.00176389	-0.00983241	0.00401872	
       725	-0.02722684	0.04170667	-0.00725545	-0.00113519	
       726	-0.01885174	0.02560071	-0.00886605	-0.00500062	
       727	-0.00371214	0.00498508	-0.00725545	-0.00081307	
       728	-0.00339002	0.00111965	0.00144177	0.00369660	
       728	0.00176389	0.00530720	0.00240812	0.00981687	
       729	-0.00210154	0.01497078	0.00691779	0.01368230	
       730	-0.00242366	0.00949475	0.00949475	0.00949475	
       731	0.00208601	-0.00854393	0.01174958	0.00788415	
       732	0.00659567	-0.01305360	0.01207170	0.00981687	
       733	0.00595144	-0.01047664	0.01174958	0.00788415	
       734	0.00273024	-0.00500062	0.00852839	0.00337448	
       735	0.00369660	-0.00693333	0.00240812	-0.00661121	
       736	0.00595144	-0.01047664	0.00208601	-0.00789969	
       737	0.00337448	0.00337448	-0.00274578	-0.00693333	
       738	-0.00177943	0.01432654	-0.00532274	0.00015329	
       739	-0.00435638	0.00144177	-0.00693333	0.00273024	
       740	0.00337448	0.00208601	-0.01079876	0.00079753	
       741	0.00981687	0.00015329	-0.00918817	-0.00081307	
       742	0.00498508	0.00498508	-0.01305360	-0.00242366	
       743	0.01142746	-0.00081307	-0.01015453	0.00144177	
       744	0.01110534	-0.00951029	-0.00789969	-0.00016883	
       745	0.00273024	-0.01176512	-0.00886605	-0.00435638	
       746	0.00498508	-0.02239506	-0.00371214	-0.00532274	
       747	0.00723991	-0.04719824	0.00176389	-0.00242366	
       748	0.00434084	-0.04365492	0.00273024	0.00305236	
       749	-0.00789969	-0.00628909	0.00756203	0.00820627	
       750	-0.00951029	0.01239382	0.00788415	0.00337448	
       751	-0.01047664	0.00852839	0.00820627	-0.00145731	
       752	-0.01401996	0.06425502	0.01110534	-0.00789969	
       753	0.00144177	0.01722561	0.01174958	-0.00500062	
       754	0.00337448	0.00305236	0.00917263	0.00208601	
       755	0.00917263	-0.00242366	0.00305236	0.00337448	
       756	0.01303806	-0.00564486	0.00627356	0.00079753	
       757	0.00627356	-0.00693333	-0.00145731	-0.00081307	
       758	-0.00145731	-0.00500062	-0.00661121	0.00111965	
       759	-0.01273148	-0.01144300	-0.00757757	0.00144177	
       760	-0.01788539	-0.00596698	-0.00983241	-0.00435638	
       761	-0.00757757	-0.00113519	-0.01176512	-0.00242366	
       762	-0.00339002	-0.00339002	-0.01305360	0.00144177	
       763	-0.00081307	0.00208601	-0.01112088	-0.00145731	
       764	0.00530720	0.01303806	-0.01047664	-0.00274578	
       765	0.00627356	0.01142746	-0.00789969	-0.00339002	
       766	0.00981687	0.00530720	-0.00371214	-0.00371214	
       767	0.01303806	0.00369660	-0.00016883	-0.00403426	
       768	-0.00596698	-0.00016883	0.00369660	-0.00661121	
       769	-0.00403426	-0.00210154	0.00723991	-0.00242366	
       770	-0.00210154	-0.00145731	0.01046111	-0.00113519	
       771	-0.01015453	-0.02432777	0.01013899	0.00273024	
       772	-0.01079876	-0.04011161	0.00981687	0.00659567	
       773	-0.00339002	-0.05267426	0.00981687	0.00337448	
       774	-0.00306790	-0.03173651	0.00659567	0.00079753	
       775	-0.00725545	-0.01240936	0.00305236	-0.00210154	
       776	-0.00210154	-0.00210154	0.00240812	0.00111965	
       777	0.00627356	0.02946614	-0.00016883	0.00240812	
       778	0.01529289	0.09260152	-0.00435638	-0.00016883	
       779	0.01722561	0.04170667	-0.00628909	0.00079753	
       780	0.01174958	0.00595144	-0.00822181	-0.00016883	
       781	0.00305236	0.00047541	-0.00886605	-0.00339002	
       782	-0.00016883	0.00369660	-0.00983241	-0.00242366	
       783	-0.00177943	0.02785555	-0.00951029	-0.00242366	
       784	-0.00951029	0.03558641	-0.00789969	0.00240812	
       785	-0.01240936	0.00981687	-0.00725545	0.00208601	
       786	-0.00951029	0.00369660	-0.00500062	-0.00661121	
       787	-0.00339002	-0.00339002	0.00208601	-0.01434208	
       788	0.01078323	-0.01337572	0.00176389	-0.01208724	
       789	0.01883621	-0.02207294	0.00176389	-0.00918817	
       790	0.01078323	-0.02658261	0.00820627	0.00498508	
       791	-0.00757757	-0.01691903	0.00788415	0.00949475	
       792	-0.02529413	-0.02948168	0.00756203	0.00434084	
       793	-0.02915956	-0.01337572	0.00756203	0.01110534	
       794	-0.00822181	-0.00081307	0.00627356	0.00981687	
       795	-0.00789969	0.00047541	0.00691779	0.00305236	
       796	-0.02271718	0.02237952	0.00305236	0.00015329	
       797	-0.01466419	0.04106243	-0.00016883	0.00047541	
       798	-0.00306790	0.02882190	-0.00081307	0.00595144	
       799	0.00240812	0.01497078	-0.00822181	0.00369660	
       800	0.00788415	0.02785555	-0.00951029	0.00305236	
       801	0.00369660	0.02495647	-0.01015453	0.00498508	
       802	0.01368230	0.01368230	-0.01273148	0.00337448	
       803	0.02334588	0.00562932	-0.01079876	0.00015329	
       804	0.02302376	0.01690349	-0.00918817	-0.00081307	
       805	0.02399011	0.02173528	-0.00500062	0.00144177	
       806	0.01915833	-0.02078446	-0.00435638	0.00691779	
       807	0.03075462	-0.04365492	0.00240812	0.00273024	
       808	0.01432654	-0.02014022	0.00595144	-0.00274578	
       809	0.00756203	-0.03012592	0.00917263	-0.00049095	
       810	-0.00339002	-0.03012592	0.01046111	0.00208601	
       811	-0.03721254	-0.01112088	0.01078323	0.00015329	
       812	-0.05428486	-0.00339002	0.01078323	-0.00145731	
       814	-0.02078446	-0.00725545	0.01110534	-0.00306790	
       815	-0.01176512	-0.01595267	0.00756203	-0.00532274	
       816	-0.01015453	-0.01563055	0.00627356	-0.00532274	
       817	0.01142746	-0.02207294	0.00144177	-0.00306790	
       818	0.01529289	-0.02497201	-0.00177943	-0.00339002	
       819	0.00949475	-0.01788539	-0.00306790	-0.00371214	
       819	-0.00500062	-0.01305360	-0.00564486	-0.00596698	
       820	-0.00210154	-0.01627479	-0.00983241	-0.00532274	
       822	-0.00016883	-0.00886605	-0.01015453	-0.00564486	
       823	0.00208601	0.02753343	-0.01273148	-0.00274578	
       824	0.01013899	0.02109104	-0.01305360	-0.00467850	
       825	0.00820627	-0.00757757	-0.00822181	-0.00177943	
       826	-0.00210154	0.00015329	-0.00500062	0.00691779	
       827	-0.00725545	-0.00403426	-0.00177943	0.01013899	
       828	-0.01788539	0.02688919	0.00144177	0.01046111	
       829	-0.02368353	0.03494217	0.00240812	0.00981687	
       830	-0.02110658	0.00015329	0.00530720	0.00111965	
       831	-0.01917386	-0.00693333	0.00691779	0.00079753	
       832	-0.00628909	-0.03978949	0.00659567	0.00562932	
       833	0.00434084	-0.01337572	0.00852839	0.00273024	
       834	0.00659567	0.00111965	0.00981687	-0.00177943	
       835	0.00337448	0.01948044	0.00627356	-0.00371214	
       836	0.00756203	-0.00081307	0.00562932	-0.00435638	
       837	0.00852839	-0.00113519	0.00176389	-0.00532274	
       838	0.01078323	0.00273024	-0.00145731	-0.00725545	
       839	0.01046111	-0.00693333	-0.00403426	-0.00532274	
       840	0.00047541	-0.01176512	-0.00918817	-0.00274578	
       841	-0.00467850	-0.01176512	-0.01144300	-0.00242366	
       842	-0.01112088	-0.00435638	-0.01240936	0.00176389	
       843	-0.02110658	-0.00145731	-0.00886605	0.00498508	
       844	0.01464866	-0.00339002	-0.01047664	-0.00016883	
       845	0.00788415	0.02044680	-0.00822181	-0.00628909	
       846	0.00788415	0.01851409	-0.00532274	-0.00596698	
       847	0.00562932	-0.00113519	-0.00306790	0.00079753	
       848	0.01497078	-0.00628909	0.00015329	-0.00177943	
       849	0.00788415	0.00015329	0.00627356	-0.00145731	
       850	0.00595144	0.00788415	0.00981687	0.00434084	
       851	0.00208601	0.01497078	0.01239382	0.00498508	
       852	0.00369660	0.01819197	0.01271594	-0.00435638	
       853	-0.00500062	0.01207170	0.01239382	-0.00983241	
       854	-0.01337572	0.03333157	0.01078323	-0.00210154	
       855	0.00756203	0.01368230	0.00788415	0.00305236	
       856	0.00079753	0.00756203	0.00466296	0.00273024	
       857	-0.00918817	0.00659567	0.00305236	0.00305236	
       858	-0.00435638	-0.01563055	-0.00113519	0.00723991	
       859	-0.00306790	-0.02207294	-0.00467850	0.00659567	
       860	-0.00564486	-0.01337572	-0.00854393	0.00756203	
       861	-0.00081307	-0.00757757	-0.01208724	0.01110534	
       862	-0.00210154	-0.02690473	-0.01273148	0.00917263	
       863	-0.00016883	-0.01949598	-0.01305360	0.00949475	
       864	0.00273024	0.00015329	-0.01112088	0.00144177	
       865	-0.00371214	0.03945184	-0.00596698	-0.00564486	
       866	-0.00854393	0.01239382	-0.00467850	-0.00242366	
       867	-0.00081307	-0.00145731	-0.00339002	0.00111965	
       868	0.00723991	-0.00564486	0.00079753	-0.00274578	
       869	0.00595144	-0.00661121	0.00369660	-0.00210154	
       870	0.00691779	-0.00693333	0.00466296	-0.00564486	
       871	0.01078323	-0.00983241	0.00949475	-0.00532274	
       872	0.00691779	-0.00016883	0.01142746	-0.00532274	
       873	0.01174958	-0.00145731	0.00949475	-0.00822181	
       874	0.02334588	0.00015329	0.00820627	-0.00596698	
       875	0.01368230	0.00401872	0.00981687	-0.00049095	
       876	0.00337448	-0.00016883	0.00434084	-0.00435638	
       877	-0.00628909	0.00273024	0.00047541	-0.00467850	
       878	-0.01144300	-0.00757757	-0.00113519	-0.00339002	
       879	-0.01047664	-0.01047664	-0.00339002	-0.00339002	
       880	-0.03205863	-0.00274578	-0.00822181	-0.00177943	
       881	-0.02561625	-0.00467850	-0.00983241	-0.00049095	
       882	-0.00596698	-0.00693333	-0.01208724	-0.00177943	
       883	-0.00435638	0.00111965	-0.00951029	-0.00242366	
       884	-0.01176512	0.02656707	-0.01144300	-0.00177943	
       885	-0.01369784	0.01336018	-0.00725545	-0.00016883	
       886	-0.00113519	-0.01273148	-0.00371214	0.00047541	
       887	0.00466296	-0.00435638	-0.00403426	-0.00467850	
       888	-0.00403426	0.01561501	0.00240812	-0.00081307	
       889	-0.00661121	-0.00822181	0.00723991	-0.00016883	
       890	-0.00016883	-0.02271718	0.00852839	-0.00532274	
       891	0.00369660	-0.00306790	0.00723991	-0.00113519	
       892	0.00466296	-0.00532274	0.01207170	-0.00113519	
       893	0.00434084	-0.02626049	0.01078323	-0.00177943	
       894	0.00337448	0.00691779	0.00917263	0.00176389	
       895	0.01593713	0.04138455	0.00981687	0.00852839	
       896	0.02302376	0.01400442	0.00401872	0.00981687	
       897	0.00273024	0.00788415	0.00240812	0.00885051	
       898	0.00047541	-0.00306790	-0.00500062	0.00981687	
       899	0.01078323	-0.00242366	-0.00403426	0.00273024	
       900	0.02109104	-0.00016883	-0.00661121	0.00240812	
       901	0.01754773	0.01303806	-0.01305360	0.00079753	
       902	-0.01337572	0.03172098	-0.01176512	0.00337448	
       903	-0.04687612	0.02817766	-0.01112088	0.00144177	
       904	-0.02690473	0.03043250	-0.00951029	0.00015329	
       905	-0.00403426	0.02109104	-0.00886605	-0.00854393	
       906	-0.00049095	0.00723991	-0.00500062	-0.01144300	
       907	0.00144177	-0.01112088	-0.00177943	-0.00918817	
       908	0.00015329	-0.02175082	0.00079753	-0.01112088	
       909	-0.00983241	-0.02239506	0.00337448	-0.01112088	
       910	-0.00532274	-0.02400565	0.00788415	-0.01079876	
       911	-0.00564486	-0.00371214	0.00852839	-0.00789969	
       912	-0.02754896	-0.00339002	0.00917263	-0.00210154	
       913	-0.02046234	0.01046111	0.00820627	0.00595144	
       914	-0.01401996	-0.00339002	0.00820627	0.00885051	
       915	-0.00145731	-0.03044804	0.01142746	0.00208601	
       916	0.01722561	-0.01337572	0.00595144	0.00788415	
       917	0.01529289	-0.01369784	0.00144177	0.01110534	
       918	0.00047541	-0.01208724	-0.00306790	0.01883621	
       919	0.01754773	-0.01434208	-0.00564486	0.01754773	
       920	0.02592283	0.00466296	-0.00757757	0.01883621	
       921	0.00852839	0.05330297	-0.01015453	0.00852839	
       922	-0.00242366	0.05716840	-0.00983241	0.00305236	
       923	-0.00145731	0.00498508	-0.00951029	-0.00113519	
       924	0.00562932	-0.00886605	-0.00951029	-0.00306790	
       925	0.00111965	0.01819197	-0.00822181	-0.00242366	
       926	0.00079753	0.00337448	-0.00596698	-0.00210154	
       927	0.00627356	0.00047541	-0.00306790	-0.00177943	
       928	0.00852839	-0.00306790	0.00240812	-0.00467850	
       929	0.01207170	-0.00918817	0.00369660	-0.00403426	
       930	0.00723991	-0.00693333	0.00723991	-0.00693333	
       931	0.00562932	-0.00306790	0.00949475	-0.00500062	
       932	0.00240812	-0.00371214	0.01174958	-0.00661121	
       933	0.00015329	-0.00596698	0.00949475	-0.00210154	
       934	-0.00403426	-0.00500062	0.00885051	-0.00145731	
       935	-0.00049095	0.00401872	0.00659567	-0.00306790	
       936	-0.00306790	0.00111965	0.00466296	-0.00339002	
       937	0.00337448	-0.00435638	0.00240812	-0.00242366	
       938	0.00434084	-0.00693333	-0.00113519	-0.00113519	
       939	-0.00403426	-0.00274578	-0.00274578	0.00144177	
       940	-0.01144300	-0.01047664	-0.00693333	0.00659567	
       941	-0.01240936	-0.02175082	-0.01144300	0.00627356	
       942	-0.00435638	-0.01240936	-0.01015453	-0.00081307	
       943	-0.00854393	-0.00016883	-0.01240936	-0.00564486	
       944	-0.01401996	0.00562932	-0.01079876	-0.00532274	
       945	-0.00822181	0.01303806	-0.00951029	-0.00693333	
       946	-0.00500062	0.00917263	-0.00918817	-0.00693333	
       947	0.00498508	-0.01659691	-0.00596698	-0.00242366	
       948	0.00305236	-0.02915956	-0.00210154	0.00337448	
       949	0.00337448	-0.02432777	0.00337448	-0.00016883	
       950	0.00079753	-0.01595267	0.00917263	0.00047541	
       951	0.00337448	-0.01305360	0.01110534	0.00176389	
       952	0.00337448	-0.01079876	0.01142746	0.00369660	
       953	0.00144177	-0.00886605	0.01013899	0.00273024	
       954	-0.00113519	-0.00306790	0.01174958	-0.00145731	
       955	-0.00113519	0.00498508	0.00820627	-0.00242366	
       956	-0.00145731	0.00305236	0.00691779	-0.00306790	
       957	-0.00725545	0.00305236	0.00240812	-0.00306790	
       958	-0.01885174	0.00595144	-0.00177943	-0.00274578	
       959	-0.01820751	0.01013899	-0.00435638	-0.00049095	
       960	0.00176389	0.01142746	-0.00854393	0.00627356	
       961	0.00498508	0.00885051	-0.01079876	0.00691779	
       962	0.00949475	-0.00210154	-0.01144300	0.00305236	
       963	0.00917263	-0.01112088	-0.01401996	-0.00016883	
       964	0.00208601	-0.01852963	-0.01401996	0.00015329	
       965	0.00562932	-0.02142870	-0.01015453	0.00144177	
       966	-0.01240936	-0.00339002	-0.00886605	0.00144177	
       967	-0.00177943	0.01786985	0.00015329	0.00079753	
       968	0.01239382	0.01529289	0.00015329	0.00047541	
       969	-0.01788539	0.00434084	0.00498508	0.00015329	
       970	-0.01305360	-0.00210154	0.00820627	0.00337448	
       971	-0.00306790	-0.00210154	0.01046111	-0.00532274	
       972	-0.00081307	-0.00467850	0.00723991	-0.00693333	
       973	0.00047541	-0.00081307	0.01142746	-0.00403426	
       974	-0.00016883	0.00305236	0.01046111	-0.00371214	
       975	0.01142746	0.00627356	0.00756203	-0.00467850	
       976	0.00949475	0.00723991	0.00434084	-0.00339002	
       977	0.00240812	0.00788415	0.00240812	-0.00145731	
       978	0.00111965	0.00788415	-0.00081307	-0.00049095	
       979	0.00079753	0.00240812	-0.00500062	-0.00242366	
       980	-0.00306790	0.00595144	-0.00854393	-0.00016883	
       981	-0.00339002	0.00079753	-0.00822181	0.00401872	
       982	0.00756203	-0.00789969	-0.01369784	0.00079753	
       983	0.01368230	-0.01112088	-0.01208724	0.00434084	
       984	0.00981687	-0.01144300	-0.01112088	0.00756203	
       985	0.01013899	-0.01015453	-0.00822181	0.00562932	
       986	0.00305236	-0.02368353	-0.00693333	0.00401872	
       987	0.01142746	-0.01981810	-0.00081307	0.00852839	
       988	0.02334588	-0.01208724	-0.00049095	0.01271594	
       989	-0.01015453	-0.00564486	0.00273024	0.01593713	
       990	-0.03077016	0.00305236	0.00498508	0.00885051	
       991	-0.06491479	0.03784124	0.01078323	-0.00177943	
       992	-0.02561625	0.06522138	0.01078323	-0.00661121	
       993	-0.00371214	0.04975965	0.01207170	-0.01047664	
       994	-0.00113519	0.03139886	0.01110534	-0.00532274	
       995	-0.00951029	0.01819197	0.00723991	-0.00145731	
       996	-0.00661121	0.01271594	0.00240812	-0.00210154	
       997	-0.00113519	0.00691779	0.00015329	-0.00274578	
       998	0.00015329	0.00530720	-0.00274578	0.00079753	
       999	0.00273024	0.00240812	-0.00500062	-0.00113519	
      1000	0.00756203	-0.00177943	-0.00951029	-0.00435638	
      1001	0.01013899	-0.00500062	-0.00951029	-0.00532274	
      1002	0.01207170	-0.01627479	-0.01240936	-0.00532274	
      1003	0.01432654	-0.02142870	-0.01369784	-0.00500062	
      1004	0.00949475	-0.02432777	-0.01047664	-0.00210154	
      1005	0.00885051	-0.02207294	-0.01208724	-0.00081307	
      1006	0.01046111	-0.01401996	-0.00725545	0.00111965	
      1007	-0.00081307	-0.00016883	-0.00596698	0.00208601	
      1008	-0.00500062	0.02882190	0.00401872	0.00047541	
      1009	-0.00403426	0.02399011	0.00466296	0.00240812	
      1010	-0.00113519	0.00530720	0.00917263	0.00434084	
      1011	0.00434084	-0.00628909	0.00949475	0.00273024	
      1012	0.00305236	-0.00983241	0.01207170	0.00401872	
      1013	0.00015329	-0.01208724	0.01078323	0.00466296	
      1014	0.00208601	-0.01337572	0.01078323	0.00079753	
      1015	0.00240812	-0.01820751	0.00562932	0.00176389	
      1016	0.00434084	-0.02400565	0.00208601	-0.00113519	
      1017	0.00369660	-0.00403426	-0.00016883	-0.00789969	
      1018	0.00337448	0.01336018	-0.00081307	-0.00886605	
      1019	0.00047541	0.01013899	-0.00435638	-0.00339002	
      1020	0.02334588	0.01110534	-0.01208724	-0.00822181	
      1021	0.00305236	0.00434084	-0.00951029	-0.00886605	
      1022	-0.00500062	0.00208601	-0.01112088	-0.00435638	
      1023	-0.00789969	-0.00435638	-0.01208724	-0.00403426	
      1024	-0.03270287	-0.03077016	-0.01079876	0.00047541	
      1025	-0.01885174	-0.01466419	-0.00983241	0.00949475	
      1026	0.00498508	-0.00016883	-0.00757757	0.01593713	
      1027	0.00047541	0.00723991	-0.00242366	0.01303806	
      1028	-0.00628909	0.00208601	0.00466296	0.00691779	
      1029	-0.01917386	-0.00177943	0.00434084	0.00401872	
      1030	-0.03592406	-0.00242366	0.00949475	0.00788415	
      1031	-0.04462128	0.00788415	0.01046111	0.00369660	
      1032	-0.04365492	0.03236521	0.01110534	-0.00306790	
      1033	0.00756203	0.01529289	0.00885051	-0.00371214	
      1034	0.04460575	0.00015329	0.00756203	0.00176389	
      1035	0.04589422	-0.01273148	0.00723991	-0.00274578	
      1036	0.03784124	0.00659567	0.00530720	-0.00661121	
      1037	0.02688919	0.00498508	0.00208601	-0.00628909	
      1038	0.02366799	-0.01498631	-0.00081307	-0.00306790	
      1039	0.01690349	0.00208601	-0.00467850	0.00337448	
      1040	0.01786985	0.01786985	-0.00918817	-0.00145731	
      1041	0.01368230	0.02044680	-0.00918817	-0.00467850	
      1042	0.00530720	-0.00951029	-0.01240936	-0.00242366	
      1043	0.04170667	-0.01724115	-0.01047664	-0.00628909	
      1044	0.04299515	-0.01305360	-0.01015453	0.00079753	
      1045	0.03816336	-0.01563055	-0.01208724	0.00434084	
      1046	0.02721131	-0.00628909	-0.00725545	0.01271594	
      1047	0.01432654	-0.00789969	-0.00339002	0.01529289	
      1048	-0.00757757	-0.00306790	0.00176389	0.01271594	
      1049	-0.05686181	0.00079753	0.00498508	0.01368230	
      1050	-0.06040512	0.00627356	0.00788415	0.00659567	
      1051	-0.08327559	0.00756203	0.01078323	0.00530720	
      1052	-0.08553042	0.00111965	0.01174958	0.00337448	
      1053	-0.03463559	0.00595144	0.01271594	-0.00210154	
      1054	-0.02464989	0.00562932	0.00981687	-0.00596698	
      1055	-0.00113519	-0.00113519	0.00820627	-0.00918817	
      1056	0.01174958	-0.00403426	0.00369660	-0.01015453	
      1057	0.00208601	-0.00435638	0.00047541	-0.00725545	
      1058	-0.00177943	0.00273024	-0.00274578	-0.00661121	
      1059	-0.00500062	0.00562932	-0.00661121	-0.00403426	
      1060	-0.00081307	0.00627356	-0.00757757	-0.00596698	
      1061	-0.00274578	0.00627356	-0.01112088	-0.00693333	
      1062	0.00369660	0.00369660	-0.00951029	-0.00564486	
      1063	0.00369660	-0.00532274	-0.01176512	-0.00596698	
      1064	0.00401872	-0.02014022	-0.00983241	-0.00564486	
      1065	0.00208601	-0.01659691	-0.00951029	-0.00371214	
      1066	0.00273024	-0.01112088	-0.00596698	-0.00339002	
      1067	0.00047541	-0.00532274	-0.00274578	-0.00210154	
      1068	0.00240812	-0.01659691	0.00047541	-0.00210154	
      1069	-0.00210154	-0.01112088	0.00240812	-0.00081307	
      1070	-0.00596698	-0.00435638	0.00788415	-0.00081307	
      1071	0.00079753	-0.00532274	0.01110534	-0.00113519	
      1072	0.00498508	-0.01466419	0.00917263	0.00176389	
      1073	0.00305236	-0.01595267	0.01207170	0.00369660	
      1074	0.00369660	-0.01208724	0.00820627	0.00369660	
      1075	0.00305236	-0.00596698	0.00820627	-0.00306790	
      1076	0.00176389	0.00015329	0.00562932	-0.00500062	
      1077	0.00498508	0.01271594	0.00144177	-0.00274578	
      1078	0.00885051	0.02527859	-0.00210154	-0.00049095	
      1079	0.00691779	0.01400442	-0.00532274	0.00305236	
      1080	0.00466296	0.00852839	-0.00918817	0.00079753	
      1081	-0.00242366	0.00337448	-0.01015453	-0.00049095	
      1082	-0.00306790	0.00498508	-0.01047664	-0.00532274	
      1083	0.00530720	-0.00242366	-0.01434208	0.00015329	
      1084	0.01110534	-0.00789969	-0.01466419	0.01336018	
      1085	0.00723991	-0.00628909	-0.01240936	0.01980256	
      1086	0.00723991	-0.00435638	-0.01015453	0.01110534	
      1087	0.00273024	-0.00822181	-0.00403426	0.00595144	
      1088	-0.00016883	0.00111965	0.00111965	0.00466296	
      1089	-0.00210154	0.00659567	0.00498508	-0.00016883	
      1090	-0.00113519	-0.00306790	0.00691779	-0.00177943	
      1091	0.00111965	-0.01466419	0.00820627	-0.00274578	
      1092	0.00562932	-0.02851532	0.00820627	-0.00210154	
      1093	0.00691779	-0.03495771	0.00949475	-0.00113519	
      1094	0.00176389	-0.03077016	0.00917263	-0.00306790	
      1095	-0.00016883	-0.01273148	0.01013899	-0.00274578	
      1096	0.00144177	0.04041820	0.00595144	-0.00339002	
      1097	-0.00210154	0.02978826	0.00273024	-0.00435638	
      1097	-0.00693333	0.04943754	-0.00210154	-0.00628909	
      1098	-0.01112088	0.04363939	-0.00306790	-0.00274578	
      1099	-0.00210154	0.00434084	-0.00725545	-0.00177943	
      1100	0.00434084	-0.00016883	-0.00822181	-0.00081307	
      1101	0.00369660	0.00240812	-0.01401996	-0.00177943	
      1102	0.00530720	0.00144177	-0.00886605	-0.00371214	
      1103	0.00144177	0.01851409	-0.00951029	0.00111965	
      1104	-0.00532274	0.04074032	-0.00918817	0.00240812	
      1105	-0.01015453	0.05201449	-0.00016883	0.00273024	
      1106	-0.01401996	0.01400442	0.00015329	-0.00113519	
      1107	-0.01305360	-0.00918817	0.00273024	-0.00564486	
      1108	-0.01369784	0.00659567	0.00691779	-0.00951029	
      1109	-0.01015453	0.00273024	0.00852839	-0.00725545	
      1110	-0.01015453	-0.00596698	0.00949475	-0.00306790	
      1111	-0.00661121	-0.00757757	0.00917263	0.00756203	
      1112	-0.01015453	-0.01176512	0.00917263	0.00756203	
      1113	-0.00661121	-0.00854393	0.00820627	-0.00177943	
      1114	0.00852839	-0.02754896	0.00595144	-0.00177943	
      1115	0.01786985	-0.03785678	0.00691779	0.00627356	
      1116	0.01432654	-0.02593837	0.00144177	0.00949475	
      1117	-0.00532274	-0.00532274	-0.00306790	0.00369660	
      1118	-0.01949598	0.01561501	-0.00339002	-0.00371214	
      1119	0.00756203	0.00466296	-0.00854393	-0.00467850	
      1120	0.02366799	0.00466296	-0.00854393	-0.00242366	
      1121	0.01046111	0.00434084	-0.00918817	-0.00113519	
      1122	0.01046111	-0.00532274	-0.00951029	-0.00016883	
      1123	-0.01240936	0.00691779	-0.01047664	0.00627356	
      1124	-0.02464989	0.01239382	-0.00757757	0.00917263	
      1125	-0.01885174	0.02399011	-0.00693333	0.01529289	
      1126	0.00273024	0.04814906	0.00240812	0.00949475	
      1127	0.02399011	0.00240812	0.00562932	0.00273024	
      1128	0.04170667	-0.03141439	0.00659567	0.00111965	
      1129	0.05362509	-0.05170791	0.00917263	-0.00242366	
      1130	0.03623065	-0.02980380	0.01078323	-0.00403426	
      1131	0.00369660	-0.01691903	0.01078323	-0.00661121	
      1132	-0.02915956	-0.01659691	0.00949475	-0.00435638	
      1133	-0.02336141	-0.01144300	0.00627356	-0.00145731	
      1134	0.00917263	0.01593713	0.00691779	-0.00435638	
      1135	-0.00532274	0.02849978	0.00627356	-0.00339002	
      1136	-0.00210154	0.02882190	-0.00113519	-0.00596698	
      1137	0.00917263	0.01078323	-0.00371214	-0.00403426	
      1138	0.00144177	0.00756203	-0.00532274	-0.00274578	
      1139	-0.00532274	0.00176389	-0.01144300	0.00079753	
      1140	-0.00757757	-0.00467850	-0.01144300	0.00079753	
      1141	-0.00983241	-0.00467850	-0.01337572	0.00337448	
      1142	-0.01273148	-0.00693333	-0.01337572	0.00305236	
      1143	-0.01820751	-0.00854393	-0.01337572	0.00240812	
      1144	-0.01401996	-0.00854393	-0.00886605	0.00144177	
      1145	-0.00789969	-0.00822181	-0.00628909	0.00401872	
      1146	-0.00339002	-0.00822181	-0.00145731	-0.00016883	
      1147	0.01625925	-0.00951029	-0.00081307	-0.00596698	
      1148	0.01336018	-0.01015453	0.00337448	-0.01337572	
      1149	-0.00661121	-0.00789969	0.00691779	-0.01079876	
      1150	-0.02271718	-0.00210154	0.01207170	-0.00661121	
      1151	-0.02883744	0.00144177	0.01078323	-0.00403426	
      1152	-0.01724115	-0.00210154	0.01239382	-0.00177943	
      1153	0.00208601	-0.00210154	0.00788415	-0.00081307	
      1154	0.01046111	-0.00081307	0.00723991	0.00305236	
      1155	0.01207170	-0.00177943	0.00498508	0.00305236	
      1156	0.00273024	-0.00049095	0.00273024	-0.00274578	
      1157	-0.00403426	-0.00113519	-0.00113519	-0.00500062	
      1158	-0.00435638	-0.00145731	-0.00596698	-0.00274578	
      1159	-0.00339002	-0.00564486	-0.00789969	0.00337448	
      1160	-0.00371214	-0.00242366	-0.01047664	0.00659567	
      1161	-0.01079876	-0.00113519	-0.00725545	0.00434084	
      1162	-0.00789969	-0.00113519	-0.01144300	0.00401872	
      1163	-0.00596698	-0.00274578	-0.01079876	0.00627356	
      1164	-0.00306790	-0.00306790	-0.01047664	0.00949475	
      1165	0.00305236	-0.00371214	-0.00500062	0.00788415	
      1166	0.00562932	-0.00113519	-0.00371214	0.00498508	
      1167	0.00788415	0.00015329	0.00176389	0.00015329	
      1168	0.00434084	0.00111965	0.00756203	-0.00500062	
      1169	0.00079753	0.00047541	0.00788415	-0.00210154	
      1170	-0.00113519	0.00273024	0.00788415	0.00015329	
      1171	-0.00145731	0.00401872	0.01142746	-0.00210154	
      1172	0.00369660	0.00208601	0.01078323	0.00015329	
      1173	0.00885051	0.00079753	0.01013899	-0.00145731	
      1174	0.00788415	0.00144177	0.00530720	-0.00016883	
      1175	0.00176389	0.00369660	0.00401872	0.00111965	
      1176	0.00498508	0.00208601	-0.00016883	0.00401872	
      1177	0.00627356	-0.00081307	-0.00145731	0.00273024	
      1178	0.00723991	-0.00242366	-0.00628909	0.00434084	
      1179	0.00691779	-0.00693333	-0.00951029	-0.00049095	
      1180	0.00240812	-0.00918817	-0.01305360	0.00176389	
      1181	0.00111965	-0.00693333	-0.01305360	0.00144177	
      1182	-0.00661121	-0.00274578	-0.01144300	0.00240812	
      1183	-0.01144300	0.00305236	-0.00918817	0.00047541	
      1184	-0.01756327	0.00949475	-0.00918817	-0.00339002	
      1185	-0.01659691	0.01336018	-0.00532274	-0.00532274	
      1186	-0.00693333	0.00498508	-0.00467850	-0.00532274	
      1187	-0.00049095	0.00240812	0.00240812	-0.00661121	
      1188	0.00305236	0.00369660	0.00562932	-0.00210154	
      1189	0.01013899	0.00434084	0.00885051	-0.00016883	
      1190	0.01046111	0.00079753	0.01078323	-0.00210154	
      1191	0.00917263	0.00240812	0.01142746	-0.00016883	
      1192	0.01336018	0.00111965	0.01239382	-0.00049095	
      1193	0.01046111	-0.00403426	0.00852839	0.00176389	
      1194	0.00047541	-0.00371214	0.00788415	0.00434084	
      1195	-0.00757757	-0.00339002	0.00337448	0.00079753	
      1196	-0.00049095	-0.00403426	-0.00113519	-0.00016883	
      1198	-0.00016883	-0.00596698	-0.00306790	0.00079753	
      1199	-0.00596698	0.00144177	-0.00789969	-0.00145731	
      1200	-0.00306790	0.00047541	-0.00918817	-0.00049095	
      1201	-0.00757757	0.00240812	-0.01144300	0.00047541	
      1202	-0.00435638	0.00562932	-0.01208724	-0.00210154	
      1203	-0.00371214	0.00659567	-0.01112088	-0.00500062	
      1204	-0.01079876	0.01142746	-0.00757757	-0.00822181	
      1205	-0.01015453	0.01078323	-0.00854393	-0.00403426	
      1206	-0.00467850	0.00562932	-0.00628909	0.00369660	
      1207	0.00498508	-0.00145731	-0.00081307	0.00305236	
      1208	0.01529289	-0.00564486	-0.00113519	0.00401872	
      1209	0.01207170	-0.00789969	0.00369660	0.00305236	
      1210	0.01207170	-0.00789969	0.00530720	0.00015329	
      1211	0.00659567	-0.00661121	0.00723991	0.00240812	
      1212	0.00176389	-0.00886605	0.01013899	-0.00306790	
      1213	-0.00210154	-0.00918817	0.00949475	-0.00113519	
      1214	-0.00467850	-0.00564486	0.00885051	-0.00339002	
      1215	-0.03012592	0.01174958	0.00756203	-0.00500062	
      1216	-0.02078446	0.01400442	0.00208601	-0.00500062	
      1217	-0.00339002	0.00981687	0.00144177	-0.00371214	
      1218	0.00111965	0.01883621	-0.00500062	-0.00177943	
      1219	-0.00049095	0.02560071	-0.00403426	-0.00371214	
      1220	0.00208601	-0.00435638	-0.00854393	-0.00145731	
      1221	0.00466296	-0.01756327	-0.01337572	0.00240812	
      1222	0.00208601	-0.01305360	-0.01305360	0.00208601	
      1223	-0.00306790	-0.01401996	-0.01079876	0.00273024	
      1224	0.00208601	-0.02239506	-0.00918817	0.00401872	
      1225	0.00498508	-0.02303929	-0.00789969	0.00273024	
      1226	0.00562932	-0.00467850	-0.00725545	0.00273024	
      1227	-0.00145731	0.00369660	-0.00306790	0.00273024	
      1228	-0.00725545	0.01948044	0.00111965	0.00273024	
      1229	-0.01079876	0.04847118	0.00530720	0.00273024	
      1230	-0.01530843	0.01980256	0.00723991	-0.00016883	
      1231	-0.00274578	-0.00403426	0.01078323	-0.00306790	
      1232	0.00240812	-0.00757757	0.00917263	-0.00693333	
      1233	0.00273024	-0.01691903	0.00949475	-0.01176512	
      1234	-0.00049095	-0.01691903	0.00852839	-0.00789969	
      1235	-0.00210154	-0.01337572	0.00562932	-0.00306790	
      1236	0.01432654	0.00756203	0.00466296	-0.00532274	
      1237	0.02817766	0.02109104	0.00047541	-0.00403426	
      1238	0.02849978	0.00337448	-0.00467850	0.00723991	
      1239	0.01625925	-0.01240936	-0.00467850	0.00756203	
      1240	-0.00145731	-0.00242366	-0.00693333	0.01336018	
      1241	-0.02271718	0.00305236	-0.01015453	0.01303806	
      1242	-0.03527983	0.01915833	-0.01305360	0.01207170	
      1243	-0.01659691	0.05008177	-0.00983241	0.00981687	
      1244	0.00498508	0.03848548	-0.01047664	0.00498508	
      1245	0.00627356	0.01593713	-0.00789969	-0.00049095	
      1246	0.00562932	0.01142746	-0.00371214	0.00047541	
      1247	0.00047541	0.00208601	0.00079753	0.00240812	
      1248	-0.00306790	-0.00467850	0.00401872	-0.00113519	
      1249	-0.00757757	-0.00467850	0.00562932	-0.00177943	
      1250	-0.01466419	-0.00467850	0.01046111	-0.00081307	
      1251	-0.00371214	-0.00725545	0.01239382	0.00079753	
      1252	0.01625925	-0.00983241	0.00949475	-0.00145731	
      1253	0.01013899	-0.01047664	0.01207170	-0.00049095	
      1254	-0.00564486	-0.00757757	0.01174958	0.00015329	
      1255	0.00659567	-0.00661121	0.00627356	-0.00306790	
      1256	0.02205740	-0.01144300	0.00434084	-0.00210154	
      1257	0.00885051	-0.01240936	0.00111965	-0.00177943	
      1258	0.00208601	-0.00500062	-0.00339002	-0.00500062	
      1259	-0.00661121	0.00498508	-0.00403426	-0.00564486	
      1260	-0.01273148	0.01658137	-0.00951029	-0.00661121	
      1261	-0.01240936	-0.00145731	-0.01176512	-0.00306790	
      1262	-0.01337572	0.00111965	-0.01401996	-0.00145731	
      1263	-0.01885174	0.00305236	-0.01273148	0.00466296	
      1264	-0.00918817	-0.01079876	-0.01047664	0.01142746	
      1265	0.00144177	-0.02593837	-0.01144300	0.00917263	
      1266	0.00530720	-0.01917386	-0.00435638	0.01013899	
      1267	0.00530720	-0.00983241	-0.00113519	-0.00049095	
      1268	0.00498508	-0.00789969	0.00015329	-0.00596698	
      1269	0.00240812	-0.00854393	0.00530720	-0.00403426	
      1270	0.00273024	-0.00789969	0.00917263	-0.00210154	
      1271	-0.00242366	-0.01112088	0.01046111	0.00144177	
      1272	0.00079753	-0.01047664	0.00788415	0.00079753	
      1273	-0.00242366	-0.00918817	0.00949475	-0.00177943	
      1274	-0.00564486	-0.00081307	0.01013899	-0.00306790	
      1275	-0.00435638	-0.00113519	0.00659567	-0.00693333	
      1276	-0.00016883	0.00208601	0.00369660	-0.00177943	
      1277	0.00240812	0.00337448	-0.00113519	-0.00081307	
      1278	0.00530720	-0.00016883	-0.00403426	-0.00081307	
      1279	0.01013899	-0.00177943	-0.00306790	-0.00049095	
      1280	0.01786985	-0.00918817	-0.00725545	-0.00049095	
      1281	0.00788415	-0.00532274	-0.00951029	-0.00467850	
      1282	0.00595144	-0.00113519	-0.00983241	-0.00435638	
      1283	0.00659567	-0.00435638	-0.00886605	-0.00628909	
      1284	0.00466296	-0.00757757	-0.01047664	-0.00339002	
      1285	-0.00016883	-0.00789969	-0.00564486	0.00111965	
      1286	-0.00661121	-0.00596698	-0.00435638	0.00305236	
      1287	-0.01820751	0.00079753	-0.00274578	0.00144177	
      1288	-0.01563055	0.00498508	0.00434084	-0.00274578	
      1289	0.01948044	0.00047541	0.00659567	-0.00661121	
      1290	0.00434084	-0.00210154	0.01110534	-0.00274578	
      1291	-0.00016883	-0.00435638	0.00981687	-0.00274578	
      1292	0.00111965	-0.00306790	0.01207170	-0.00049095	
      1293	0.00176389	0.00015329	0.00917263	0.00337448	
      1294	-0.00628909	0.00434084	0.00852839	0.00498508	
      1295	-0.01498631	0.01497078	0.00756203	0.00111965	
      1296	-0.03238075	0.04106243	0.00595144	-0.00371214	
      1297	-0.02658261	0.02044680	0.00111965	-0.00081307	
      1298	-0.00564486	0.01110534	-0.00306790	-0.00306790	
      1299	0.00047541	0.00595144	-0.00789969	-0.00339002	
      1300	0.00337448	0.00144177	-0.00854393	-0.00435638	
      1301	0.00401872	-0.01176512	-0.01079876	-0.00210154	
      1302	0.00691779	-0.02368353	-0.01176512	-0.00177943	
      1303	0.00015329	-0.01756327	-0.01240936	0.00273024	
      1304	-0.00532274	-0.01208724	-0.01240936	0.00111965	
      1305	-0.01015453	0.00627356	-0.00951029	0.00434084	
      1306	0.00144177	-0.02142870	-0.00886605	0.00498508	
      1307	0.00852839	-0.06265996	-0.00177943	0.00788415	
      1308	0.01336018	-0.03753466	0.00079753	0.00723991	
      1309	0.01497078	-0.02754896	0.00466296	0.00595144	
      1310	0.01271594	-0.00789969	0.00820627	0.00240812	
      1311	-0.00467850	0.02109104	0.01078323	-0.00274578	
      1312	-0.02497201	0.03719700	0.01239382	-0.00822181	
      1313	-0.03527983	0.11450563	0.01336018	-0.00467850	
      1314	-0.01305360	0.05910111	0.00981687	0.00144177	
      1315	0.00240812	-0.00371214	0.00691779	-0.00339002	
      1316	0.00949475	-0.01852963	0.00273024	-0.00339002	
      1317	0.00627356	-0.00693333	-0.00016883	-0.00403426	
      1318	0.01013899	-0.01079876	-0.00242366	-0.00306790	
      1319	0.00691779	-0.02110658	-0.00467850	-0.00371214	
      1320	0.00659567	0.00111965	-0.00628909	-0.00113519	
      1321	-0.00113519	0.03397581	-0.00918817	0.00111965	
      1322	0.01915833	0.04492787	-0.00983241	0.00079753	
      1323	0.02463435	0.01561501	-0.00951029	-0.00306790	
      1324	0.01658137	0.00788415	-0.01079876	0.00047541	
      1325	0.00852839	0.01529289	-0.00693333	0.00015329	
      1326	-0.00403426	0.02334588	-0.00467850	0.00240812	
      1327	-0.01434208	0.00466296	-0.00145731	-0.00016883	
      1328	-0.01563055	-0.00339002	0.00208601	-0.00822181	
      1329	-0.00854393	-0.00242366	0.00466296	-0.00210154	
      1330	-0.00371214	-0.00113519	0.00917263	0.00305236	
      1331	-0.02432777	-0.00757757	0.00917263	0.00627356	
      1332	-0.01820751	-0.00628909	0.01303806	0.00401872	
      1333	-0.00435638	-0.01047664	0.01174958	-0.00274578	
      1334	0.00079753	-0.01949598	0.00917263	-0.00081307	
      1335	-0.00403426	-0.02207294	0.00852839	0.00047541	
      1336	-0.00435638	-0.01176512	0.00369660	-0.00049095	
      1337	-0.00177943	0.00079753	-0.00049095	0.00047541	
      1338	0.00176389	0.00917263	-0.00403426	0.00176389	
      1339	0.00015329	0.02721131	-0.00596698	0.00047541	
      1340	-0.00596698	0.01432654	-0.00918817	0.00079753	
      1341	-0.00371214	0.00466296	-0.01112088	-0.00177943	
      1342	0.00691779	-0.00145731	-0.01305360	-0.00500062	
      1343	0.01239382	-0.00789969	-0.01369784	-0.00564486	
      1344	0.00949475	-0.02432777	-0.00983241	-0.00596698	
      1345	0.00240812	-0.02593837	-0.00693333	-0.00757757	
      1346	0.00337448	-0.01401996	-0.00693333	-0.00564486	
      1347	0.01625925	-0.03077016	-0.00306790	0.00144177	
      1348	0.01464866	-0.03205863	0.00176389	0.00047541	
      1349	0.01046111	-0.01981810	0.00562932	0.00144177	
      1350	-0.00016883	-0.00306790	0.00917263	0.00305236	
      1351	-0.00339002	0.01593713	0.01239382	0.01013899	
      1352	0.00240812	0.00369660	0.01271594	0.00852839	
      1353	-0.00339002	-0.00113519	0.00981687	0.01142746	
      1354	0.00305236	0.00434084	0.00917263	0.01239382	
      1355	0.01561501	0.00305236	0.00723991	0.01013899	
      1356	0.01078323	0.00885051	0.00208601	0.00466296	
      1357	-0.00049095	0.00917263	-0.00081307	-0.00403426	
      1358	-0.00725545	0.00498508	-0.00532274	-0.00242366	
      1359	-0.02142870	0.00305236	-0.00757757	-0.00500062	
      1360	-0.01305360	-0.00403426	-0.00918817	-0.00113519	
      1361	-0.01305360	-0.00145731	-0.01176512	0.00369660	
      1362	-0.00274578	-0.00016883	-0.01401996	0.00466296	
      1363	0.01464866	-0.00435638	-0.01144300	0.00434084	
      1364	0.00466296	-0.00339002	-0.01240936	0.00369660	
      1365	-0.02207294	0.00562932	-0.00822181	0.00401872	
      1366	-0.01401996	0.00723991	-0.00725545	-0.00306790	
      1367	-0.02207294	0.00047541	-0.00113519	-0.00339002	
      1368	-0.01466419	-0.00339002	0.00208601	-0.00306790	
      1369	-0.00467850	-0.00532274	0.00530720	-0.00403426	
      1370	0.00240812	-0.00532274	0.00852839	-0.00789969	
      1371	-0.00113519	-0.00757757	0.00852839	-0.00886605	
      1372	-0.00532274	-0.01691903	0.01078323	-0.00693333	
      1373	0.02721131	-0.02110658	0.01336018	-0.00532274	
      1374	0.00047541	0.00144177	0.00885051	-0.00113519	
      1375	0.00144177	0.00305236	0.00659567	-0.00113519	
      1376	-0.01015453	0.01400442	0.00595144	-0.00274578	
      1377	-0.00918817	0.02141316	-0.00081307	-0.00145731	
      1378	-0.00016883	0.01432654	-0.00274578	-0.00145731	
      1379	0.00240812	0.00723991	-0.00628909	0.00111965	
      1380	0.00434084	0.00240812	-0.00854393	0.00208601	
      1381	0.00788415	0.00047541	-0.01079876	0.00434084	
      1382	0.00369660	-0.00049095	-0.01273148	0.00466296	
      1383	0.00208601	-0.00371214	-0.01337572	0.00369660	
      1384	0.00111965	-0.00500062	-0.01047664	0.00047541	
      1385	0.00111965	-0.00532274	-0.01112088	0.00015329	
      1386	0.00047541	-0.00661121	-0.00532274	0.00208601	
      1387	0.00208601	-0.01337572	0.00015329	0.00466296	
      1388	0.00530720	-0.01401996	0.00015329	0.00273024	
      1389	0.01239382	-0.00564486	0.00337448	0.00144177	
      1390	0.03784124	-0.00177943	0.00659567	0.00047541	
      1391	0.03494217	0.00530720	0.01142746	0.00208601	
      1392	0.01851409	0.01497078	0.01078323	0.00273024	
      1393	0.00305236	0.03494217	0.00852839	0.00595144	
      1394	0.00047541	0.01110534	0.00852839	-0.00049095	
      1395	-0.00500062	-0.00306790	0.00852839	-0.00500062	
      1396	-0.03914526	-0.01305360	0.00337448	-0.00789969	
      1397	-0.02432777	-0.01434208	0.00111965	-0.00693333	
      1398	0.01078323	-0.02787108	-0.00210154	-0.00145731	
      1399	-0.01401996	-0.03012592	-0.00661121	-0.00177943	
      1400	-0.02787108	-0.02529413	-0.00725545	-0.00564486	
      1401	-0.03399135	0.01239382	-0.01144300	-0.00628909	
      1402	0.00981687	0.03655277	-0.01047664	-0.00822181	
      1403	0.00627356	0.01207170	-0.01079876	-0.00532274	
      1404	-0.00596698	0.03365369	-0.01015453	0.00111965	
      1405	-0.00467850	0.02656707	-0.01047664	0.00595144	
      1406	-0.00049095	0.01432654	-0.00532274	0.01207170	
      1407	0.00498508	0.00079753	0.00144177	0.01174958	
      1408	-0.00016883	-0.00306790	0.00337448	0.00595144	
      1409	-0.00306790	-0.00339002	0.00659567	-0.00049095	
      1410	-0.00049095	-0.00693333	0.00756203	-0.00532274	
      1411	0.00240812	-0.00435638	0.01078323	-0.00532274	
      1412	-0.00596698	0.00434084	0.01013899	-0.00306790	
      1413	-0.00403426	0.00981687	0.01013899	0.00015329	
      1414	0.00176389	0.00595144	0.00885051	-0.00016883	
      1415	0.00691779	0.00595144	0.00788415	-0.00339002	
      1416	-0.00177943	0.00337448	0.00530720	0.00015329	
      1417	-0.00371214	0.00015329	-0.00242366	-0.00210154	
      1418	0.00562932	-0.00242366	-0.00145731	-0.00339002	
      1419	0.00240812	-0.00049095	-0.00628909	-0.00596698	
      1420	-0.00596698	0.00434084	-0.01047664	-0.00371214	
      1421	0.00015329	0.00434084	-0.01144300	-0.00242366	
      1422	0.00273024	0.00144177	-0.01208724	0.00015329	
      1423	-0.00177943	0.00434084	-0.01176512	-0.00274578	
      1424	-0.00274578	0.00401872	-0.01208724	-0.00339002	
      1425	0.00176389	-0.00016883	-0.00822181	-0.00628909	
      1426	0.00111965	-0.00757757	-0.00532274	-0.00693333	
      1427	0.01013899	-0.02400565	-0.00145731	-0.00371214	
      1428	0.00691779	-0.01530843	0.00240812	-0.00274578	
      1429	0.00240812	-0.00886605	0.00401872	-0.00596698	
      1430	0.00723991	-0.00951029	0.00885051	-0.00049095	
      1431	0.00240812	-0.00049095	0.01174958	0.00981687	
      1432	0.00401872	0.00208601	0.01110534	0.01142746	
      1433	0.00273024	0.00015329	0.01174958	0.00981687	
      1434	-0.00210154	-0.00210154	0.00691779	0.01174958	
      1435	-0.00693333	-0.01466419	0.00401872	0.01078323	
      1436	-0.00467850	-0.02239506	0.00369660	0.01013899	
      1437	-0.00274578	-0.02787108	-0.00242366	0.00627356	
      1438	0.00015329	-0.03270287	-0.00467850	-0.00145731	
      1439	-0.00145731	-0.01981810	-0.00822181	-0.00306790	
      1440	0.00273024	-0.00725545	-0.01047664	-0.00467850	
      1441	0.00369660	0.01336018	-0.01369784	-0.00274578	
      1442	-0.00628909	0.06135595	-0.01176512	0.00111965	
      1443	-0.00081307	0.05104813	-0.01144300	-0.00049095	
      1444	0.00434084	-0.00725545	-0.00757757	-0.00596698	
      1445	0.00723991	-0.01240936	-0.00628909	-0.00467850	
      1446	0.00079753	-0.00081307	-0.00467850	-0.00016883	
      1447	0.00466296	0.00756203	-0.00016883	0.00208601	
      1448	0.01110534	-0.00435638	0.00144177	-0.00016883	
      1449	0.00885051	-0.00628909	0.00434084	0.00595144	
      1450	0.00562932	-0.00339002	0.00885051	0.00562932	
      1451	0.00434084	-0.01015453	0.00917263	0.00176389	
      1452	-0.00049095	-0.02787108	0.00917263	-0.00242366	
      1453	-0.00435638	-0.03205863	0.01078323	-0.00500062	
      1454	-0.01144300	-0.04816459	0.01142746	-0.00596698	
      1455	-0.01949598	-0.05106367	0.00627356	-0.00242366	
      1456	-0.00886605	-0.04816459	0.00466296	-0.00306790	
      1457	-0.00081307	-0.03560194	-0.00371214	-0.00113519	
      1458	-0.00242366	0.00305236	-0.00500062	0.00176389	
      1459	-0.00983241	0.04235091	-0.00661121	-0.00274578	
      1460	-0.00661121	0.06940893	-0.00628909	-0.00757757	
      1461	-0.00435638	0.08132734	-0.01015453	-0.00661121	
      1462	-0.01434208	0.04170667	-0.00886605	-0.00435638	
      1463	-0.00983241	0.03429793	-0.00886605	-0.00403426	
      1463	-0.00242366	0.03139886	-0.00886605	-0.00242366	
      1465	0.00917263	0.01497078	-0.00822181	-0.00113519	
      1465	0.00434084	0.00466296	-0.00274578	0.00079753	
      1466	0.01046111	0.00079753	0.00337448	0.00144177	
      1467	0.01142746	0.00111965	0.00498508	-0.00339002	
      1468	0.00498508	0.00305236	0.00723991	-0.00306790	
      1470	-0.00628909	-0.00081307	0.01078323	0.00079753	
      1471	-0.01949598	-0.00113519	0.01046111	0.00337448	
      1472	-0.03463559	-0.00210154	0.01142746	0.00917263	
      1473	-0.01015453	0.00595144	0.01142746	0.01303806	
      1473	-0.00564486	0.00401872	0.00788415	0.01497078	
      1474	-0.01112088	-0.00081307	0.00595144	0.00595144	
      1475	0.00047541	0.00434084	0.00273024	-0.00177943	
      1476	0.00852839	0.00015329	-0.00177943	-0.00532274	
      1477	0.00562932	0.00015329	0.00015329	-0.00500062	
      1478	0.01207170	-0.00403426	-0.00532274	-0.00500062	
      1479	0.01786985	-0.00661121	-0.00789969	-0.00145731	
      1480	0.02141316	-0.01337572	-0.00918817	0.00079753	
      1481	0.01336018	-0.01273148	-0.00789969	-0.00274578	
      1482	0.01625925	-0.01563055	-0.01240936	0.00466296	
      1483	-0.00016883	-0.00274578	-0.00725545	0.00530720	
      1484	0.00337448	-0.00081307	-0.00661121	0.00756203	
      1485	-0.00983241	-0.00306790	-0.00596698	0.00949475	
      1486	-0.02175082	0.00273024	0.00111965	0.00691779	
      1487	-0.04043373	0.01013899	0.00466296	0.00176389	
      1488	-0.04268857	0.01529289	0.00852839	-0.00145731	
      1489	-0.00242366	0.00949475	0.01078323	-0.00274578	
      1490	0.01561501	0.00208601	0.01078323	-0.00500062	
      1491	0.01722561	-0.00403426	0.00917263	-0.00177943	
      1492	0.00885051	-0.00693333	0.00756203	0.00015329	
      1493	0.02914402	0.00852839	0.00917263	-0.00113519	
      1494	0.03204310	0.00401872	0.00498508	-0.00177943	
      1495	0.00240812	-0.01724115	0.00144177	-0.00210154	
      1496	-0.00210154	-0.02271718	-0.00113519	-0.00467850	
      1497	0.00788415	-0.02593837	-0.00371214	-0.00371214	
      1498	-0.01144300	-0.02014022	-0.00564486	-0.00822181	
      1499	-0.01949598	-0.02368353	-0.01176512	-0.00306790	
      1500	-0.00725545	-0.02368353	-0.01079876	0.00176389	
      1501	-0.00467850	-0.02078446	-0.01208724	0.00047541	
      1502	0.00111965	0.00756203	-0.01240936	-0.00596698	
      1503	-0.00693333	0.03655277	-0.00854393	-0.00564486	
      1504	-0.03366923	0.00659567	-0.00693333	-0.00113519	
      1505	-0.01498631	-0.01305360	-0.00371214	-0.00306790	
      1506	-0.00467850	-0.01337572	0.00369660	0.00208601	
      1507	-0.00145731	-0.00306790	0.00208601	0.00498508	
      1508	0.00466296	0.00820627	0.00659567	0.00273024	
      1509	0.00917263	0.01690349	0.00820627	-0.00016883	
      1510	0.01110534	0.02270164	0.01142746	-0.00049095	
      1511	0.01722561	0.00337448	0.01142746	-0.00145731	
      1512	0.01786985	-0.00371214	0.01110534	-0.00371214	
      1513	0.00466296	-0.00177943	0.00788415	-0.00661121	
      1514	-0.01208724	0.00079753	0.00530720	-0.00081307	
      1515	-0.01369784	0.00015329	0.00337448	0.00273024	
      1516	-0.00918817	0.00079753	-0.00274578	-0.00016883	
      1517	0.01497078	0.00305236	-0.00532274	0.00369660	
      1518	0.00562932	0.00466296	-0.00500062	0.00466296	
      1519	0.00240812	-0.00081307	-0.00854393	0.00595144	
      1520	0.00659567	0.00015329	-0.01144300	0.00562932	
      1521	0.00917263	0.00337448	-0.01112088	0.00562932	
      1522	0.01013899	0.00015329	-0.01079876	0.00305236	
      1523	0.00369660	0.00111965	-0.00822181	-0.00177943	
      1524	-0.00532274	-0.00113519	-0.00532274	-0.00306790	
      1525	0.00466296	0.00820627	-0.00339002	-0.00177943	
      1526	0.01239382	-0.00145731	-0.00210154	0.00305236	
      1527	0.00691779	-0.00242366	0.00401872	0.00498508	
      1528	0.00015329	-0.00049095	0.00723991	0.00015329	
      1529	0.00015329	0.00079753	0.00917263	-0.01079876	
      1530	-0.00757757	-0.00500062	0.01174958	-0.00789969	
      1531	-0.01079876	-0.00628909	0.01303806	-0.00854393	
      1532	0.00176389	-0.01466419	0.01142746	-0.00564486	
      1533	-0.00789969	-0.00145731	0.00885051	-0.00854393	
      1534	-0.00339002	0.00240812	0.00498508	-0.00371214	
      1535	-0.00854393	0.01690349	0.00337448	-0.00016883	
      1536	-0.01659691	0.02721131	-0.00113519	-0.00435638	
      1537	-0.01434208	-0.00532274	-0.00306790	0.00015329	
      1538	-0.00886605	0.00208601	-0.00725545	0.00691779	
      1539	0.01529289	-0.00339002	-0.00854393	0.01078323	
      1540	0.01368230	-0.00854393	-0.00822181	0.00981687	
      1541	0.00305236	-0.00371214	-0.01305360	0.00756203	
      1542	0.00144177	-0.00371214	-0.01015453	0.00401872	
      1543	0.00305236	-0.00757757	-0.00822181	0.00047541	
      1544	0.00659567	-0.01176512	-0.00854393	0.00337448	
      1545	0.00562932	-0.01917386	-0.00306790	0.00305236	
      1546	0.00691779	-0.02336141	0.00176389	0.00401872	
      1547	0.00466296	-0.01079876	0.00240812	-0.00081307	
      1548	-0.00081307	0.00498508	0.00691779	-0.00113519	
      1549	-0.00628909	0.01464866	0.01013899	-0.00274578	
      1550	-0.00596698	0.02334588	0.01174958	-0.00693333	
      1551	0.00015329	0.00401872	0.01013899	-0.00532274	
      1552	0.00240812	-0.01369784	0.01013899	-0.00339002	
      1553	0.00305236	-0.03109228	0.00852839	-0.00467850	
      1554	0.00240812	-0.04301069	0.00756203	-0.00274578	
      1555	0.00273024	-0.04333281	-0.00016883	-0.00081307	
      1556	-0.00661121	-0.01659691	-0.00435638	0.00176389	
      1557	-0.02529413	0.04138455	-0.00403426	0.00240812	
      1558	-0.00177943	0.04460575	-0.00467850	0.00240812	
      1559	0.01142746	0.00981687	-0.00886605	0.00047541	
      1560	-0.00339002	0.02817766	-0.01079876	-0.00113519	
      1561	-0.01949598	0.05201449	-0.01305360	0.00498508	
      1562	-0.02368353	0.02366799	-0.01273148	0.00885051	
      1564	-0.00596698	0.00144177	-0.00822181	-0.00016883	
      1565	0.01883621	-0.01047664	-0.00564486	-0.00435638	
      1565	-0.00081307	-0.00822181	-0.00403426	0.00015329	
      1566	-0.02110658	0.00176389	-0.00145731	-0.00145731	
      1567	-0.01466419	0.03494217	0.00369660	-0.00306790	
      1568	-0.01401996	0.03526429	0.00756203	-0.00789969	
      1570	0.00723991	0.01497078	0.01110534	-0.01112088	
      1571	0.01883621	0.01046111	0.01271594	-0.00467850	
      1572	0.01464866	0.00820627	0.01142746	-0.00371214	
      1572	0.02076892	-0.00757757	0.00917263	-0.00306790	
      1573	0.03268733	-0.03850102	0.00659567	-0.00145731	
      1574	0.03333157	-0.02014022	0.00401872	0.00111965	
      1576	0.01593713	-0.01401996	0.00337448	0.00047541	
      1577	0.00305236	-0.01981810	-0.00242366	0.00498508	
      1578	0.00176389	-0.02626049	-0.00596698	0.00917263	
      1579	-0.01949598	-0.02271718	-0.00532274	0.00659567	
      1580	-0.03527983	-0.02110658	-0.01015453	0.00723991	
      1581	-0.01756327	-0.02336141	-0.01047664	0.00723991	
      1582	0.00015329	0.00498508	-0.01240936	0.00401872	
      1583	0.00273024	0.02882190	-0.01401996	-0.00016883	
      1584	0.00401872	0.00595144	-0.01208724	-0.00210154	
      1585	0.00885051	-0.00918817	-0.00596698	-0.00049095	
      1586	0.00176389	-0.00113519	-0.00145731	-0.00049095	
      1587	-0.00403426	0.00788415	0.00015329	0.01013899	
      1588	-0.01563055	0.02495647	0.00466296	0.01432654	
      1589	-0.02142870	0.01368230	0.00369660	0.00885051	
      1590	-0.02368353	0.00981687	0.00917263	0.00369660	
      1591	-0.01240936	0.01497078	0.00949475	-0.00049095	
      1592	-0.02432777	0.00595144	0.00949475	-0.00403426	
      1593	-0.02883744	-0.00113519	0.00949475	-0.00435638	
      1594	-0.00951029	-0.00467850	0.00659567	-0.00628909	
      1595	-0.02078446	-0.00435638	0.00240812	-0.00500062	
      1596	-0.02722684	0.00273024	0.00047541	-0.01144300	
      1597	-0.00822181	0.00466296	-0.00628909	-0.00693333	
      1598	0.00917263	0.00401872	-0.00564486	0.00079753	
      1599	0.03139886	0.00627356	-0.00564486	-0.00371214	
      1600	0.01593713	0.01142746	-0.00789969	-0.00177943	
      1601	0.02012468	-0.00339002	-0.01273148	0.00788415	
      1602	0.01754773	-0.00500062	-0.01434208	0.00498508	
      1603	0.01658137	-0.00339002	-0.01595267	0.00401872	
      1604	0.01497078	-0.00145731	-0.01079876	-0.00177943	
      1605	0.01915833	-0.00532274	-0.00822181	-0.00339002	
      1606	0.01078323	-0.00532274	-0.00500062	-0.00274578	
      1607	0.00047541	-0.00306790	0.00144177	-0.00210154	
      1608	-0.00596698	-0.00210154	0.00273024	0.00015329	
      1609	-0.00725545	-0.00628909	0.00595144	-0.00274578	
      1610	-0.01305360	-0.00951029	0.00691779	-0.00854393	
      1611	-0.01015453	-0.00886605	0.01078323	-0.00661121	
      1612	0.00079753	-0.00725545	0.01174958	-0.00049095	
      1613	0.00176389	-0.00564486	0.00981687	0.00111965	
      1614	-0.00081307	-0.00339002	0.00949475	-0.00467850	
      1615	0.00176389	-0.00371214	0.00434084	-0.00532274	
      1616	0.00305236	-0.00210154	0.00305236	-0.00210154	
      1617	0.02012468	-0.00177943	0.00079753	-0.00306790	
      1618	0.02527859	-0.00210154	-0.00339002	0.00144177	
      1619	0.01239382	-0.00371214	-0.00564486	0.00047541	
      1620	0.00273024	-0.00242366	-0.00983241	0.00208601	
      1621	-0.00951029	-0.00242366	-0.01015453	0.00401872	
      1622	-0.01112088	-0.00242366	-0.01498631	0.00176389	
      1623	-0.00306790	-0.00403426	-0.01498631	0.00079753	
      1624	-0.00145731	-0.00371214	-0.01401996	0.00047541	
      1625	-0.00210154	-0.00371214	-0.01208724	0.00111965	
      1626	0.00144177	-0.00210154	-0.00918817	-0.00081307	
      1627	0.00305236	0.00047541	-0.00532274	-0.00306790	
      1628	0.00111965	0.00144177	-0.00435638	-0.00274578	
      1629	0.00111965	0.00240812	0.00176389	-0.00145731	
      1630	-0.00177943	0.00111965	0.00723991	0.00144177	
      1631	-0.00113519	0.00337448	0.01207170	-0.00081307	
      1632	0.00240812	-0.00113519	0.01303806	-0.00113519	
      1633	0.00273024	-0.00306790	0.01239382	0.00079753	
      1634	0.00079753	-0.00177943	0.01303806	0.00401872	
      1635	-0.00371214	-0.00371214	0.00917263	0.00434084	
      1636	-0.00339002	-0.00661121	0.00723991	0.00691779	
      1637	-0.00403426	-0.00274578	0.00208601	0.00788415	
      1638	0.00273024	-0.00210154	-0.00081307	0.00723991	
      1639	0.00562932	-0.00596698	-0.00435638	0.00144177	
      1640	0.00240812	-0.00532274	-0.01144300	-0.00177943	
      1641	-0.00789969	-0.00596698	-0.01144300	-0.00210154	
      1642	-0.01434208	-0.01401996	-0.01401996	-0.00081307	
      1643	-0.01208724	-0.01208724	-0.01240936	0.00015329	
      1644	-0.01015453	-0.01079876	-0.01208724	-0.00306790	
      1645	-0.01144300	-0.01498631	-0.01015453	-0.00306790	
      1646	-0.00016883	-0.01466419	-0.00886605	-0.00145731	
      1647	0.01754773	-0.01144300	-0.00306790	0.00401872	
      1648	0.02237952	-0.00177943	0.00144177	0.00047541	
      1649	0.00111965	0.04460575	0.00369660	0.00047541	
      1650	-0.00081307	0.04009608	0.01336018	-0.00177943	
      1651	-0.00467850	0.03462005	0.01336018	0.00176389	
      1652	0.02141316	0.02109104	0.01271594	0.00144177	
      1653	0.02302376	0.01174958	0.01303806	-0.00467850	
      1654	0.00466296	0.01336018	0.01110534	-0.00983241	
      1655	0.00047541	-0.00339002	0.00820627	-0.00983241	
      1656	0.00723991	-0.00757757	0.00627356	-0.00789969	
      1657	0.00111965	-0.00403426	0.00144177	-0.00789969	
      1658	-0.01079876	-0.01015453	-0.00661121	-0.00016883	
      1659	-0.02239506	-0.00693333	-0.00886605	0.00208601	
      1660	-0.02432777	0.01529289	-0.00983241	0.00401872	
      1661	-0.00210154	0.01819197	-0.00886605	-0.00274578	
      1662	-0.00951029	0.01239382	-0.01208724	0.00015329	
      1663	-0.01788539	-0.00564486	-0.01112088	0.00627356	
      1664	-0.01852963	-0.01144300	-0.00822181	0.00981687	
      1665	-0.00274578	-0.00951029	-0.00564486	0.00885051	
      1666	0.00240812	0.00015329	-0.00274578	-0.00274578	
      1667	0.00595144	-0.00983241	-0.00049095	-0.00210154	
      1668	-0.00532274	-0.00886605	0.00434084	0.00273024	
      1669	0.00401872	-0.00467850	0.00723991	0.00208601	
      1670	-0.02271718	0.02334588	0.01013899	0.00369660	
      1671	-0.01047664	0.03494217	0.01110534	0.00305236	
      1672	0.00466296	0.00949475	0.01464866	0.00788415	
      1673	0.00949475	0.01078323	0.00981687	0.01013899	
      1674	0.00530720	0.01046111	0.00917263	0.01271594	
      1675	-0.01401996	0.02399011	0.00917263	0.00273024	
      1676	-0.01756327	0.01174958	0.00337448	-0.00789969	
      1677	-0.01498631	0.00659567	-0.00081307	-0.00500062	
      1678	0.01013899	0.00691779	-0.00564486	-0.00403426	
      1679	0.01786985	-0.00306790	-0.00532274	-0.00306790	
      1680	0.02205740	-0.00854393	-0.00918817	-0.00306790	
      1681	0.01625925	-0.00918817	-0.01015453	-0.00210154	
      1682	0.02882190	-0.01079876	-0.01337572	-0.00822181	
      1683	0.01271594	-0.01434208	-0.01369784	-0.00886605	
      1684	-0.00467850	-0.00951029	-0.01015453	-0.00242366	
      1685	-0.00467850	-0.00951029	-0.00854393	0.00015329	
      1686	-0.00371214	-0.01047664	-0.00854393	0.00047541	
      1687	-0.02400565	-0.00339002	-0.00113519	0.00305236	
      1688	-0.01434208	0.00079753	0.00369660	0.00369660	
      1689	0.00176389	0.00498508	0.00530720	-0.00113519	
      1690	0.00917263	0.00305236	0.00788415	-0.00564486	
      1691	0.00015329	-0.00210154	0.01239382	-0.00693333	
      1692	-0.00145731	-0.00339002	0.00981687	-0.00467850	
      1693	0.00240812	-0.00242366	0.00756203	-0.00596698	
      1694	0.00369660	-0.00113519	0.00530720	-0.00693333	
      1695	0.00723991	-0.00339002	0.00820627	-0.00177943	
      1696	0.01174958	-0.00886605	0.00530720	-0.00177943	
      1697	0.00562932	-0.01015453	-0.00016883	-0.00177943	
      1698	0.00273024	-0.00725545	0.00079753	-0.00500062	
      1699	0.01013899	-0.00789969	-0.00596698	-0.00435638	
      1700	0.00917263	-0.00564486	-0.01240936	-0.00210154	
      1701	0.00144177	-0.00661121	-0.01240936	-0.00564486	
      1702	-0.00564486	-0.00661121	-0.01273148	-0.00693333	
      1703	-0.00886605	-0.01337572	-0.01401996	0.00144177	
      1704	-0.00951029	-0.01305360	-0.01047664	0.01464866	
      1705	-0.00789969	-0.00628909	-0.01079876	0.02109104	
      1706	0.01529289	0.00305236	-0.00467850	0.01722561	
      1707	0.02012468	0.00305236	0.00466296	0.01336018	
      1708	-0.00628909	0.00273024	0.00562932	0.00917263	
      1709	-0.01917386	0.00240812	0.00820627	0.00144177	
      1710	-0.03077016	0.00305236	0.01239382	-0.00306790	
      1711	-0.00854393	-0.00016883	0.01271594	-0.00339002	
      1712	0.00144177	-0.00145731	0.01078323	-0.00145731	
      1713	0.00079753	-0.00113519	0.01013899	-0.00500062	
      1714	-0.00918817	-0.00113519	0.00756203	-0.00467850	
      1715	-0.00789969	0.00111965	0.00820627	-0.00596698	
      1716	-0.00339002	-0.00371214	0.00305236	-0.00725545	
      1717	-0.00210154	-0.00306790	-0.00113519	-0.00500062	
      1718	-0.00113519	-0.00210154	-0.00725545	-0.00210154	
      1719	0.00273024	-0.00339002	-0.01015453	0.00111965	
      1720	0.00434084	-0.00145731	-0.01176512	0.00111965	
      1721	0.00498508	-0.00274578	-0.01047664	0.00337448	
      1722	0.00885051	-0.00274578	-0.01208724	0.00337448	
      1723	0.00981687	-0.00016883	-0.00983241	0.00273024	
      1724	0.01013899	-0.00210154	-0.00983241	0.00176389	
      1725	0.01336018	-0.00693333	-0.00757757	0.00305236	
      1726	0.01142746	-0.00757757	-0.00371214	0.00079753	
      1727	0.00079753	-0.00177943	0.00273024	0.00240812	
      1728	-0.00886605	0.00079753	0.00144177	0.00144177	
      1729	-0.00339002	-0.00016883	0.00723991	0.00015329	
      1730	-0.00210154	-0.00081307	0.00852839	-0.00274578	
      1731	0.00047541	0.00305236	0.00949475	-0.00274578	
      1732	-0.00145731	0.00498508	0.00981687	-0.00596698	
      1733	0.00434084	-0.00016883	0.00788415	-0.00822181	
      1734	0.01303806	-0.00049095	0.00820627	-0.00951029	
      1735	0.00756203	-0.00145731	0.00820627	-0.00532274	
      1736	0.01303806	-0.00210154	0.00305236	0.00273024	
      1737	0.01819197	-0.00661121	-0.00306790	-0.00177943	
      1738	0.01400442	-0.00661121	-0.00661121	0.00176389	
      1739	-0.00145731	-0.01240936	-0.00661121	0.00530720	
      1740	-0.02142870	-0.00435638	-0.01273148	0.00595144	
      1741	-0.05364062	0.00079753	-0.00983241	-0.00210154	
      1742	-0.03141439	-0.00145731	-0.01305360	0.00723991	
      1743	-0.00854393	-0.00274578	-0.00951029	0.00885051	
      1744	-0.00564486	-0.00822181	-0.00918817	0.01207170	
      1745	-0.00854393	0.00208601	-0.00500062	0.01593713	
      1746	-0.00467850	0.03011038	-0.00145731	0.00015329	
      1747	0.00015329	0.02012468	0.00176389	-0.00789969	
      1748	-0.00242366	0.01078323	0.00337448	-0.00177943	
      1749	-0.00016883	0.00659567	0.00691779	0.00917263	
      1750	-0.00983241	0.01658137	0.00917263	0.01271594	
      1751	-0.00983241	0.01786985	0.01207170	0.00595144	
      1752	-0.00403426	0.00756203	0.01368230	-0.00210154	
      1753	0.01336018	-0.01305360	0.01271594	-0.01144300	
      1754	0.00498508	-0.01563055	0.00756203	-0.02078446	
      1755	-0.00467850	-0.01498631	0.00337448	-0.01659691	
      1756	-0.00371214	-0.01724115	-0.00210154	-0.00951029	
      1757	0.00981687	-0.00113519	-0.00532274	0.00144177	
      1758	0.01271594	0.05555780	-0.00693333	0.00530720	
      1759	0.02237952	0.04589422	-0.00725545	0.00369660	
      1760	0.01239382	0.01078323	-0.00951029	0.00111965	
      1761	-0.00113519	-0.00757757	-0.00854393	0.00144177	
      1762	0.01271594	-0.02110658	-0.01369784	0.00079753	
      1763	0.00820627	-0.01820751	-0.01112088	0.00015329	
      1764	-0.00016883	0.01625925	-0.00693333	0.00627356	
      1765	0.00144177	0.05587992	-0.00339002	0.00079753	
      1766	-0.02239506	0.01593713	-0.00500062	0.00337448	
      1767	-0.00886605	0.00144177	0.00015329	0.00723991	
      1768	-0.00403426	0.00337448	0.00530720	0.00305236	
      1769	-0.01337572	0.01078323	0.00852839	0.00047541	
      1770	-0.00918817	0.00949475	0.01110534	0.00047541	
      1771	-0.00274578	0.01207170	0.01046111	-0.00371214	
      1772	0.00305236	-0.00596698	0.00981687	-0.00500062	
      1773	0.00885051	-0.04687612	0.00949475	-0.00564486	
      1774	0.01851409	-0.07522261	0.00659567	-0.01240936	
      1775	0.01432654	-0.09938155	0.00305236	-0.01498631	
      1776	0.00369660	-0.11516539	0.00015329	-0.00500062	
      1777	-0.00886605	-0.07232353	-0.00532274	0.00208601	
      1778	0.00047541	-0.04365492	-0.00596698	-0.00177943	
      1779	-0.00306790	0.05942323	-0.00854393	-0.00113519	
      1780	-0.01208724	0.13898670	-0.01273148	-0.00081307	
      1781	-0.00951029	0.11450563	-0.01369784	-0.00016883	
      1782	0.01497078	0.05942323	-0.01369784	0.01078323	
      1783	0.01239382	0.02849978	-0.01144300	0.01464866	
      1784	-0.00081307	0.01819197	-0.00918817	0.01046111	
      1785	-0.02754896	0.01142746	-0.00467850	0.00401872	
      1786	-0.02046234	0.00595144	-0.00532274	0.00144177	
      1787	-0.00435638	0.00047541	0.00015329	-0.00177943	
      1788	0.00079753	-0.01079876	0.00562932	-0.00274578	
      1789	0.00015329	-0.01337572	0.01013899	-0.00145731	
      1790	-0.00242366	-0.02014022	0.01271594	0.00337448	
      1791	-0.00725545	-0.02142870	0.01110534	-0.00049095	
      1792	0.01786985	-0.02046234	0.01400442	-0.00113519	
      1793	0.01400442	-0.01659691	0.01303806	-0.00500062	
      1794	0.00111965	-0.00113519	0.00820627	-0.00532274	
      1795	0.00595144	0.00240812	0.00885051	-0.00210154	
      1796	-0.00145731	0.01851409	0.00401872	-0.00242366	
      1797	0.00240812	0.01593713	-0.00016883	-0.00306790	
      1798	0.00079753	0.00337448	-0.00306790	-0.00339002	
      1799	-0.00435638	0.00015329	-0.00951029	-0.00693333	
      1800	-0.00693333	-0.00016883	-0.01369784	-0.00628909	
      1801	-0.00306790	-0.00339002	-0.01240936	-0.00693333	
      1802	0.00176389	-0.00628909	-0.01112088	-0.00467850	
      1803	0.00079753	-0.00628909	-0.01176512	0.00047541	
      1804	0.00530720	-0.00725545	-0.01015453	-0.00113519	
      1805	0.00659567	-0.00918817	-0.00661121	-0.00339002	
      1806	0.00562932	-0.00854393	-0.00500062	-0.00467850	
      1807	0.00369660	-0.00789969	-0.00113519	0.00273024	
      1808	0.00208601	-0.00789969	0.00498508	0.00852839	
      1809	-0.00177943	-0.00371214	0.00466296	0.01174958	
      1810	0.00273024	-0.00177943	0.00949475	0.00917263	
      1811	0.00434084	-0.00628909	0.00981687	0.00079753	
      1812	-0.00113519	-0.00596698	0.00852839	-0.00049095	
      1813	-0.00564486	-0.00403426	0.01207170	-0.00210154	
      1814	-0.00822181	-0.00371214	0.00627356	0.00015329	
      1815	-0.01273148	0.00273024	0.00305236	0.00627356	
      1816	-0.01240936	0.00369660	0.00047541	0.00595144	
      1817	0.00111965	0.00530720	-0.00306790	-0.00049095	
      1818	0.01400442	0.00015329	-0.00789969	-0.00725545	
      1819	0.00240812	-0.00242366	-0.01047664	-0.00918817	
      1820	-0.00113519	-0.00532274	-0.01176512	-0.00371214	
      1821	0.00111965	-0.01401996	-0.01305360	-0.00113519	
      1822	0.00273024	-0.02336141	-0.01498631	-0.00016883	
      1823	0.00079753	-0.02336141	-0.01176512	0.00144177	
      1824	0.00144177	-0.01885174	-0.00725545	-0.00113519	
      1825	-0.00016883	-0.01530843	-0.00725545	0.00144177	
      1826	-0.00564486	-0.00113519	-0.00177943	-0.00016883	
      1827	0.00111965	0.01303806	0.00337448	-0.00016883	
      1828	0.00176389	0.00144177	0.00369660	0.00079753	
      1829	0.00788415	0.00498508	0.00852839	-0.00049095	
      1830	0.01239382	0.00627356	0.01013899	0.00305236	
      1831	-0.01337572	0.01561501	0.01464866	0.00111965	
      1832	-0.01369784	0.01851409	0.01497078	-0.00274578	
      1833	-0.00918817	0.01336018	0.01046111	-0.00210154	
      1834	-0.00628909	0.00949475	0.00981687	-0.00371214	
      1835	-0.00500062	0.00530720	0.00627356	-0.00306790	
      1836	-0.00886605	0.00627356	0.00337448	-0.00661121	
      1837	-0.00435638	-0.00049095	-0.00081307	-0.00467850	
      1838	0.00369660	-0.00725545	-0.00435638	-0.00628909	
      1839	0.00176389	-0.00693333	-0.00886605	-0.00564486	
      1840	-0.00596698	-0.00467850	-0.01079876	-0.00596698	
      1841	-0.00532274	-0.00467850	-0.01369784	-0.00500062	
      1842	-0.00177943	-0.00500062	-0.01305360	0.00530720	
      1843	-0.00016883	-0.00306790	-0.01208724	0.00852839	
      1844	0.00498508	0.00144177	-0.00725545	0.01497078	
      1845	0.01336018	-0.00113519	-0.00564486	0.01658137	
      1846	0.01078323	-0.00113519	-0.00145731	0.01239382	
      1847	0.00756203	-0.00049095	0.00144177	0.00756203	
      1847	-0.00918817	0.00595144	0.00369660	0.00627356	
      1848	-0.01401996	0.00627356	0.00723991	0.00337448	
      1849	-0.00596698	-0.00274578	0.01207170	0.00111965	
      1850	-0.00049095	-0.00951029	0.01046111	-0.00886605	
      1851	0.00305236	-0.01079876	0.01239382	-0.00918817	
      1852	0.00401872	-0.01208724	0.01110534	-0.00500062	
      1853	0.00562932	-0.01369784	0.00852839	-0.00951029	
      1854	0.00885051	-0.00242366	0.00723991	-0.00435638	
      1855	0.00659567	0.01754773	0.00466296	-0.00081307	
      1856	0.00659567	0.01303806	-0.00177943	-0.00339002	
      1857	0.00562932	0.00337448	-0.00371214	-0.00274578	
      1858	0.01400442	-0.00435638	-0.00596698	-0.00596698	
      1859	0.02109104	-0.00339002	-0.01176512	-0.00564486	
      1860	0.01948044	-0.00596698	-0.01337572	-0.00628909	
      1861	0.03268733	-0.00854393	-0.01369784	-0.01369784	
      1862	0.02624495	-0.00596698	-0.01047664	-0.01401996	
      1863	0.00723991	-0.00757757	-0.00918817	-0.01240936	
      1864	-0.00049095	-0.01240936	-0.00725545	-0.00532274	
      1865	-0.01240936	-0.00274578	-0.00339002	0.00305236	
      1866	-0.06684751	0.00401872	-0.00274578	0.02205740	
      1867	-0.06491479	0.00820627	0.00369660	0.02270164	
      1868	-0.05686181	0.01561501	0.00949475	0.01722561	
      1869	-0.02336141	0.00273024	0.01336018	0.01078323	
      1870	-0.04268857	-0.01112088	0.01046111	0.00820627	
      1871	-0.03785678	-0.01401996	0.01207170	0.00144177	
      1872	-0.00467850	0.00144177	0.01561501	0.00047541	
      1873	-0.00564486	0.05394721	0.01078323	-0.00403426	
      1874	0.00562932	0.04557210	0.00434084	0.00047541	
      1875	0.02882190	0.04814906	0.00240812	0.00176389	
      1876	0.04299515	0.02914402	0.00047541	-0.00661121	
      1877	0.03011038	0.00820627	-0.00371214	-0.00532274	
      1878	0.02076892	0.01110534	-0.00789969	-0.00371214	
      1879	0.01400442	0.00562932	-0.00918817	-0.00210154	
      1880	0.01142746	-0.00274578	-0.01079876	-0.00757757	
      1881	0.01400442	-0.00210154	-0.01273148	-0.01047664	
      1882	0.00176389	0.01078323	-0.01112088	-0.00725545	
      1883	-0.00467850	0.02044680	-0.01015453	-0.00661121	
      1884	-0.00242366	0.01690349	-0.01047664	0.00079753	
      1885	-0.00371214	-0.00757757	-0.00306790	0.01078323	
      1886	-0.00371214	-0.01595267	-0.00113519	0.02044680	
      1887	-0.00081307	-0.01852963	0.00369660	0.01207170	
      1888	-0.00983241	-0.02658261	0.00595144	0.00659567	
      1889	-0.00467850	-0.03785678	0.00981687	0.00627356	
      1890	0.00144177	-0.02948168	0.00852839	0.00530720	
      1891	-0.00500062	-0.01208724	0.01046111	0.00240812	
      1892	-0.00596698	0.01464866	0.00949475	0.00079753	
      1893	0.01013899	0.03655277	0.00530720	-0.00210154	
      1894	0.03204310	0.00111965	0.00627356	-0.00306790	
      1895	0.01658137	0.00111965	0.00273024	-0.00467850	
      1896	0.00659567	-0.00628909	-0.00145731	-0.00274578	
      1897	-0.00113519	-0.00886605	-0.00467850	-0.00467850	
      1898	-0.00242366	-0.01240936	-0.00983241	-0.00403426	
      1899	-0.00049095	-0.01176512	-0.01144300	-0.00177943	
      1900	0.00434084	-0.01369784	-0.01208724	-0.00177943	
      1901	0.00466296	-0.00500062	-0.01337572	-0.00016883	
      1902	0.00337448	-0.02658261	-0.01273148	0.00047541	
      1903	-0.00016883	-0.02915956	-0.01047664	0.00015329	
      1904	0.00144177	0.00659567	-0.01015453	0.00015329	
      1905	-0.00596698	0.01271594	-0.00210154	-0.00435638	
      1906	-0.00532274	0.01303806	0.00434084	-0.00564486	
      1907	0.00176389	0.01464866	0.00659567	-0.00854393	
      1908	0.00305236	-0.00274578	0.01078323	-0.00596698	
      1909	0.00176389	-0.00789969	0.00788415	-0.00564486	
      1910	0.00111965	-0.01627479	0.00659567	0.00079753	
      1911	0.00079753	-0.02529413	0.00981687	0.00401872	
      1912	0.00015329	-0.03173651	0.00820627	0.00691779	
      1913	-0.00081307	0.02173528	0.00530720	0.00111965	
      1914	-0.00371214	0.02721131	0.00273024	-0.00081307	
      1915	-0.01369784	0.02173528	0.00176389	-0.00403426	
      1916	-0.01724115	0.02560071	-0.00371214	-0.00113519	
      1918	-0.01305360	0.01078323	-0.00854393	-0.00435638	
      1918	-0.01820751	0.00530720	-0.01079876	-0.00081307	
      1919	-0.03173651	-0.00918817	-0.01337572	0.00434084	
      1920	-0.00532274	-0.01305360	-0.01563055	0.00723991	
      1921	0.00595144	-0.02851532	-0.01369784	0.00305236	
      1922	0.00691779	-0.03012592	-0.01273148	-0.00371214	
      1923	0.00434084	-0.02529413	-0.01015453	-0.00500062	
      1924	0.00176389	-0.00016883	-0.00886605	0.00079753	
      1925	0.01239382	0.04686058	-0.00274578	-0.00274578	
      1926	0.01819197	0.05394721	0.00369660	-0.00371214	
      1927	0.01529289	0.01271594	0.00466296	-0.00500062	
      1928	0.00949475	-0.02014022	0.01046111	-0.00467850	
      1929	0.01432654	0.01690349	0.00981687	-0.00661121	
      1930	0.02109104	0.01110534	0.01078323	-0.00596698	
      1931	0.02270164	-0.00822181	0.01174958	-0.00661121	
      1933	0.02753343	-0.01144300	0.00885051	-0.00371214	
      1933	0.02366799	-0.00789969	0.00917263	-0.00435638	
      1934	0.01368230	-0.00500062	0.00820627	-0.00210154	
      1935	-0.00242366	-0.00242366	0.00369660	-0.00242366	
      1936	-0.04687612	0.01174958	0.00047541	0.00659567	
      1937	-0.07039082	0.01690349	-0.00274578	0.00530720	
      1938	-0.04204433	0.01239382	-0.00532274	0.00627356	
      1939	-0.01434208	0.00144177	-0.00822181	0.00627356	
      1940	-0.01434208	-0.00145731	-0.00951029	0.00691779	
      1941	0.00079753	-0.00983241	-0.01144300	0.00530720	
      1942	0.02076892	-0.01530843	-0.01079876	0.00627356	
      1944	0.01368230	-0.01659691	-0.00983241	0.01786985	
      1945	0.01368230	-0.02915956	-0.00628909	0.01336018	
      1946	0.01754773	-0.04107797	-0.00306790	0.01142746	
      1947	0.01883621	-0.03656830	-0.00113519	0.00079753	
      1948	0.00047541	-0.03044804	0.00530720	-0.00983241	
      1949	-0.02432777	-0.01305360	0.00337448	-0.00789969	
      1950	-0.02529413	0.01722561	0.01239382	-0.00886605	
      1951	-0.01756327	0.07037529	0.01690349	-0.01112088	
      1952	-0.03399135	0.07101953	0.01368230	-0.00049095	
      1953	-0.00725545	0.01948044	0.01078323	0.00144177	
      1954	-0.00177943	-0.00339002	0.00852839	-0.00016883	
      1955	0.00852839	0.00659567	0.00788415	0.00144177	
      1956	0.02914402	0.00305236	0.00466296	-0.00371214	
      1957	0.01110534	0.00240812	-0.00242366	-0.00403426	
      1958	0.01078323	0.00852839	-0.00693333	-0.00757757	
      1959	0.00852839	0.00949475	-0.00983241	-0.00725545	
      1960	0.01303806	0.00240812	-0.01112088	0.00337448	
      1961	0.01207170	0.00047541	-0.01273148	0.00273024	
      1962	0.00530720	0.00047541	-0.01079876	0.00176389	
      1963	0.00756203	-0.00564486	-0.00983241	0.00240812	
      1964	-0.00081307	-0.00789969	-0.00918817	0.00015329	
      1965	-0.01079876	-0.02014022	-0.00628909	0.00466296	
      1966	-0.02110658	-0.01627479	-0.00403426	0.00369660	
      1967	-0.01079876	-0.00918817	0.00079753	0.00369660	
      1968	-0.00210154	-0.00564486	0.00337448	0.00530720	
      1969	0.00208601	-0.00371214	0.00691779	0.00756203	
      1970	0.00111965	-0.00339002	0.00885051	0.00240812	
      1971	0.00949475	-0.01691903	0.01013899	-0.00435638	
      1972	0.01271594	-0.01885174	0.01110534	-0.00532274	
      1973	0.00530720	-0.03044804	0.00756203	-0.00500062	
      1974	0.00208601	-0.02754896	0.00595144	-0.00403426	
      1975	0.00627356	-0.04043373	0.00949475	-0.00500062	
      1976	-0.00822181	0.00917263	0.00498508	-0.00628909	
      1977	-0.01305360	0.02366799	0.00015329	-0.00113519	
      1978	-0.01949598	0.04009608	-0.00532274	-0.00177943	
      1979	-0.01112088	0.03880760	-0.00886605	-0.00371214	
      1980	-0.00403426	0.01432654	-0.00854393	-0.00113519	
      1981	0.00079753	-0.00049095	-0.01144300	0.00047541	
      1982	0.00659567	-0.00564486	-0.01144300	0.00208601	
      1983	0.00723991	-0.00596698	-0.00757757	0.00273024	
      1984	0.01110534	0.00111965	-0.00628909	-0.00081307	
      1985	0.01432654	0.00820627	-0.00628909	0.00144177	
      1986	0.00820627	0.00691779	-0.00145731	0.00240812	
      1987	0.00079753	0.00498508	0.00176389	-0.00596698	
      1988	0.00595144	0.00015329	0.00369660	-0.01047664	
      1989	0.00208601	-0.00628909	0.00788415	-0.00628909	
      1990	0.00691779	-0.00789969	0.00949475	-0.00339002	
      1991	0.01303806	-0.01401996	0.00691779	-0.00854393	
      1992	0.00659567	-0.01563055	0.00176389	-0.00596698	
      1993	-0.01176512	-0.00918817	0.00305236	0.00530720	
      1994	-0.02014022	-0.00306790	0.00305236	0.00820627	
      1995	-0.01240936	0.01368230	0.00111965	0.00756203	
      1996	-0.01144300	0.00917263	-0.00403426	0.01239382	
      1997	-0.01563055	0.00079753	-0.00661121	0.01239382	
      1998	-0.00081307	-0.00242366	-0.00661121	0.00691779	
      1999	0.01400442	0.00111965	-0.00951029	-0.00210154	
      2000	0.00434084	0.00015329	-0.00951029	-0.00467850	
      2001	0.00337448	-0.00693333	-0.01144300	-0.01240936	
      2002	-0.00242366	-0.00371214	-0.01369784	-0.00757757	
      2003	0.00820627	0.00047541	-0.01208724	-0.00467850	
      2004	0.01174958	-0.00242366	-0.01176512	-0.00403426	
      2005	0.00305236	0.00466296	-0.00596698	-0.00596698	
      2006	-0.00532274	0.00981687	-0.00306790	-0.00693333	
      2007	-0.00177943	0.01529289	0.00015329	-0.01208724	
      2008	-0.00822181	0.01432654	0.00273024	-0.01176512	
      2009	-0.00822181	0.00369660	0.00659567	-0.00789969	
      2010	0.01658137	-0.01337572	0.00691779	0.00176389	
      2011	0.00917263	-0.02948168	0.00756203	0.00949475	
      2012	-0.00016883	-0.03463559	0.00917263	0.01722561	
      2013	-0.01852963	-0.02303929	0.00885051	0.01432654	
      2014	-0.01563055	-0.02110658	0.00595144	0.01207170	
      2015	-0.00371214	-0.01563055	0.00337448	0.01625925	
      2016	-0.00371214	0.01883621	0.00015329	0.02173528	
      2017	-0.00016883	0.04814906	-0.00210154	0.01239382	
      2018	0.00691779	0.00981687	-0.00628909	0.01078323	
      2019	0.00917263	-0.00210154	-0.00822181	0.00627356	
      2020	0.01110534	0.00852839	-0.00789969	-0.00564486	
      2021	-0.02658261	0.01625925	-0.00757757	-0.01079876	
      2022	0.04460575	0.00659567	-0.00596698	-0.01144300	
      2023	0.01239382	0.00369660	-0.00693333	-0.00693333	
      2024	-0.02787108	-0.01240936	-0.00564486	-0.00822181	
      2025	-0.01756327	-0.03012592	-0.00210154	-0.00596698	
      2026	-0.01273148	-0.01659691	-0.00016883	0.00176389	
      2027	-0.01530843	0.00595144	0.00530720	0.00047541	
      2028	-0.02658261	0.01142746	0.00949475	0.00273024	
      2029	-0.02142870	0.00659567	0.01271594	0.00562932	
      2030	-0.00918817	0.03945184	0.01400442	-0.00081307	
      2031	-0.00016883	0.03333157	0.01303806	-0.00789969	
      2032	-0.00113519	0.00756203	0.01271594	-0.00822181	
      2033	0.00305236	-0.00757757	0.01078323	0.00240812	
      2034	-0.00177943	0.04331727	0.00852839	0.00691779	
      2035	-0.00145731	0.03848548	0.00401872	-0.00049095	
      2036	0.00369660	0.01078323	0.00401872	-0.00242366	
      2037	0.00240812	-0.00789969	0.00079753	-0.00403426	
      2038	0.00273024	-0.00435638	-0.00532274	-0.00339002	
      2039	0.00530720	-0.00661121	-0.00467850	-0.00274578	
      2040	0.00756203	-0.00564486	-0.00983241	0.00015329	
      2041	0.00627356	-0.00886605	-0.00886605	0.00047541	
      2042	-0.00210154	-0.00757757	-0.00854393	-0.00145731	
      2043	0.01174958	-0.00854393	-0.00854393	-0.00145731	
      2044	0.01593713	-0.00854393	-0.00500062	-0.00274578	
      2045	0.00208601	-0.01112088	-0.00306790	-0.00242366	
      2046	0.00273024	-0.00757757	0.00015329	-0.00016883	
      2047	-0.01047664	-0.00210154	0.00369660	-0.00016883	
      2048	-0.00822181	-0.00693333	0.00756203	-0.00403426	
      2049	0.01336018	-0.03205863	0.00949475	-0.00757757	
      2050	0.01754773	-0.05460698	0.01046111	-0.00661121	
      2051	0.01915833	-0.05138579	0.00949475	-0.00306790	
      2052	-0.00274578	-0.03817890	0.00885051	0.01303806	
      2053	-0.01563055	-0.03141439	0.01046111	0.01658137	
      2054	-0.00854393	0.00530720	0.00756203	0.00949475	
      2055	-0.00854393	0.05974535	0.00434084	0.00208601	
      2056	-0.01627479	0.07198588	0.00305236	-0.00081307	
      2057	-0.00339002	0.04202879	-0.00306790	-0.00242366	
      2058	0.00659567	0.01722561	-0.00951029	-0.00081307	
      2059	0.00627356	0.00208601	-0.01208724	-0.00113519	
      2060	0.00144177	-0.00403426	-0.01112088	-0.00693333	
      2061	-0.02014022	0.00337448	-0.01273148	-0.00596698	
      2062	-0.01820751	0.00305236	-0.01369784	-0.00371214	
      2063	-0.00693333	0.00852839	-0.01498631	-0.00145731	
